A1;A2;A3;A4;A5;A6;A7;A8;A9;A10;A11;A12;A13;A14;A15;A16;A17;A18;A19;A20;A21;A22;A23;A24;A25;A26;A27;A28;A29;A30;A31;A32;A33;A34;A35;A36;A37;A38;A39;Clase;C1;C2;C3;C4
1;0,52567185;1;0,54019088;1;0,63730002;0;0,550521448;2;0,841666667;0,838888889;0,822222222;0,803030303;1;0,002777778;-0,019444444;2,219088549;0,987160298;-0,052073765;-0,086853844;0,297546381;0,674313386;0,299431198;-0,010177768;-0,005368624;-0,015992822;-0,013868198;-0,020688827;-0,017446433;-0,013197236;-0,024042566;-0,006710749;0,004893288;0,030077889;0,044039392;0,043927762;0,042699747;0,022142174;0,022365762;1;1;0;0;0
1;0,526364414;1;0,539500846;1;0,624755837;0;0,536739221;1;0,822222222;0,841666667;0,808333333;0,803030303;1;-0,019444444;-0,013888889;2,138742533;0,97767669;-0,034630894;-0,094978894;0,2293559;0,651144901;0,289112987;-0,013868189;-0,000894774;-0,009059395;-0,009283075;-0,00167771;-0,005592316;-0,016440097;-0,069123163;-0,052296851;-0,018229111;0,013980025;0,032340603;0,036111025;0,019095636;0,020045959;0,017110972;1;1;0;0;0
1;0,52567185;1;0,54019088;1;0,640725265;0;0,553955755;2;0,808333333;0,822222222;0,780555556;0,803030303;1;-0,013888889;-0,027777778;2,148976717;0,992733115;-0,04348121;-0,075187083;0,352515773;0,703021041;0,269339316;-0,04984262;-0,019123583;-0,021024221;-0,020688827;-0,021918586;-0,024713251;-0,024266129;-0,055307983;-0,000391466;0,006403177;0,019570804;0,016551909;0,019570804;0,015657364;0,003019869;0,000447393;1;1;0;0;0
1;0,526364414;1;0,539500846;1;0,629369203;0;0,544327758;2;0,780555556;0,808333333;0,758333333;0,803030303;1;-0,027777778;-0,022222222;2,111640986;0,991565894;-0,033429917;-0,093704102;0,237498822;0,703783905;0,334562799;-0,018229116;-0,015657362;-0,032200927;-0,037451374;-0,040020004;-0,039238301;-0,036557819;-0,041359947;-0,038903269;-0,009115313;0,012023018;0,023707202;0,027283993;0,023707204;0,013644532;0,013420877;1;1;0;0;0
1;0,52567185;1;0,54019088;1;0,633405698;0;0,553269295;2;0,758333333;0,780555556;0,772222222;0,803030303;1;-0,022222222;0,013888889;2,231769003;0,975923151;-0,039880409;-0,095976349;0,26824977;0,655280832;0,207977154;-0,020465229;-0,022030385;-0,029183896;-0,032089195;-0,028848634;-0,026166327;-0,026389866;-0,038009812;-0,014231628;0,018061399;0,040243333;0,0414716;0,043369583;0,027954575;0,000894778;-0,003914641;1;1;0;0;0
1;0,524979187;1;0,54019088;1;0,620425305;0;0,535357553;1;0,772222222;0,758333333;0,777777778;0,803030303;1;0,013888889;0,005555556;2,398763386;0,972088196;-0,059321254;-0,089545043;0,301288264;0,63911482;0,182589436;-0,024042557;-0,012749913;-0,018117301;-0,011296107;-0,009842251;-0,004026484;-0,016328273;-0,054527405;-0,040354985;-0,008360395;0,011100405;0,02465736;0,026054554;0,017110986;0,021136014;0,025383913;1;1;0;0;0
1;0,523593576;1;0,542260047;1;0,623191157;0;0,54019088;2;0,777777778;0,772222222;0,8;0,803030303;1;0,005555556;0,022222222;2,386698615;0,998268803;-0,10834469;0,056562338;0,496851158;0,728559055;0,311221128;-0,02672518;-0,016551916;-0,016104644;-0,015433724;-0,013868204;-0,016663736;-0,018117312;-0,062998423;-0,044262651;-0,007829165;0,008695921;0,011296106;0,027283996;0,020912416;0,01207893;0,013085396;1;1;0;0;0
1;0,52567185;1;0,54019088;1;0,639645269;0;0,558070106;2;0,8;0,777777778;0,819444444;0,803030303;1;0,022222222;0,019444444;2,453389131;0,995175034;-0,051739119;-0,091902237;0,314550745;0,723454886;0,324267861;-0,01420367;-0,009059392;-0,02862512;-0,035887612;-0,034547105;-0,033876808;-0,037451368;-0,047053003;-0,035217373;0,00858408;0,03510566;0,034993951;0,032089191;0,027619289;0,01140794;-0,005256784;1;1;0;0;0
1;0,526364414;1;0,54019088;1;0,635828911;0;0,553955755;2;0,819444444;0,8;0,813888889;0,803030303;1;0,019444444;-0,005555556;2,359241354;0,992782074;-0,102288981;-0,127589821;0,251301643;0,700038945;0,357013204;-0,009394913;-0,011631613;-0,016999178;-0,013532721;-0,011296115;-0,011743447;-0,013309065;-0,018229119;-0,005620277;0,01188323;0,037563056;0,037898119;0,037451366;0,02437791;0,010625107;0,003467257;1;1;0;0;0
1;0,526364414;1;0,539500846;1;0,643139477;0;0,553955755;2;0,772222222;0,769444444;0,794444444;0,80479798;1;0,002777778;0,022222222;2,375995047;0,976475861;-0,040955555;-0,107784303;0,236768112;0,658891427;0,225076775;-0,033555816;-0,007499179;-0,017258633;-0,025349433;-0,022375208;-0,019162593;-0,023564943;-0,06513989;-0,002231935;0,013480119;0,02891792;0,021899306;0,018091647;0,019400593;-0,007975313;-0,008332397;1;1;0;0;0
1;0,526364414;1;0,539500846;1;0,619870293;0;0,531901052;1;0,794444444;0,772222222;0,805555556;0,80479798;1;0,022222222;0,011111111;2,439406682;0,985316888;-0,029393671;-0,083961026;0,259610351;0,68387301;0,25538688;-0,025706332;-0,000714223;-0,004285312;-0,006070819;-0,002380739;0,004880473;0,002142657;-0,025736064;-0,01508679;0,007052824;0,010385602;0,015116542;0,019906304;0,017377648;0,011665095;0,017496652;1;1;0;0;0
1;0,526364414;1;0,539500846;1;0,642323814;0;0,563543437;2;0,805555556;0,794444444;0,847222222;0,80479798;1;0,011111111;0,041666667;2,434877291;0,994297511;-0,033109929;-0,091078026;0,277035854;0,720907498;0,329361876;-0,012974303;-0,009879752;-0,01856764;-0,027371668;-0,033674728;-0,030226182;-0,027847455;-0,033912532;-0,006814767;0,007409916;0,027728517;0,024873605;0,020590497;0,013628903;-0,006427898;-0,010355838;1;1;0;0;0
1;0,524979187;1;0,54088076;1;0,643461815;0;0,559439815;2;0,847222222;0,805555556;0,841666667;0,80479798;1;0,041666667;-0,005555556;2,45181605;0,998655204;-0,06922813;-0,071182561;0,429177135;0,758224259;0,332012372;-0,012260193;-0,005237575;-0,011189004;-0,016544628;-0,02642006;-0,022970091;-0,015116533;-0,034150324;0,004196035;0,05399025;0,055177074;0,050428883;0,04163887;0,02856112;0,014878538;-0,007142087;1;1;0;0;0
1;0,524979187;1;0,541570483;1;0,635233145;0;0,547770514;2;0,841666667;0,847222222;0,830555556;0,80479798;1;-0,005555556;-0,011111111;2,193847718;0,999173786;-0,10634281;-0,002202177;0,497309397;0,752692844;0,369789846;-0,014581001;0,003571088;0,001547471;-0,003213997;-0,002380736;-0,016068614;-0,014640515;-0,081478359;-0,027936669;0,00723137;0,024278776;0,01821065;0,029036861;0,014640508;-0,001666513;-0,001190365;1;1;0;0;0
1;0,524979187;1;0,54019088;1;0,630889873;0;0,545705388;2;0,830555556;0,841666667;0,794444444;0,80479798;1;-0,011111111;-0,036111111;2,128054313;0,989282515;-0,040450485;-0,081951313;0,352399993;0,690469662;0,211046701;-0,018329637;-0,004404335;-0,012736264;-0,007499182;0,003094962;0,001428449;-0,005713709;-0,030255911;-0,021453116;0,006160085;0,008451425;0,017496643;0,023802897;0,024992562;0,014283456;0,011665089;1;1;0;0;0
1;0,527056877;1;0,539500846;1;0,622666109;0;0,54088076;2;0,794444444;0,830555556;0,797222222;0,80479798;1;-0,036111111;0,002777778;2,114224607;0,996699797;-0,040064247;-0,104165019;0,270594316;0,736520925;0,382969918;-0,013926426;-0,013688396;-0,030345112;-0,033674736;-0,02879899;-0,029036864;-0,033080209;-0,034863703;-0,039856267;-0,00928462;0,016038854;0,038311145;0,042945916;0,030939736;0,030018058;0,028917921;1;1;0;0;0
1;0,52567185;1;0,54019088;1;0,636141427;0;0,547770514;2;0,797222222;0,794444444;0,783333333;0,80479798;1;0,002777778;-0,013888889;2,271674709;0,998266959;-0,065851059;-0,09104852;0,402125777;0,753517213;0,326440322;-0,018091654;-0,010950972;-0,0248736;-0,022018289;-0,020352521;-0,018329651;-0,019876569;-0,0298694;-0,005356622;0,034685362;0,054227617;0,047460072;0,035814805;0,024397738;0,009879743;0,004999511;1;1;0;0;0
1;0,52567185;1;0,54019088;1;0,63132711;0;0,547082318;2;0,783333333;0,797222222;0,816666667;0,80479798;1;-0,013888889;0,033333333;2,300514316;0,984421607;-0,037865409;-0,092612459;0,301115669;0,6766144;0,217406807;-0,041876521;-0,012855292;-0,009284625;-0,0074992;-0,020233537;-0,037241353;-0,039856278;-0,082542492;-0,044490446;0,004017475;0,02002529;0,022613166;0,035458143;0,014789264;-0,002529535;-0,007856281;1;1;0;0;0
1;0,527749235;1;0,532592608;1;0,615960644;0;0,551208705;2;0,8;0,775;0,830555556;0,790909091;1;0,025;0,030555556;2,49643478;0,998558592;-0,019107926;-0,007501525;0,369017419;0,731584938;0,45908728;0,18988534;0,081364698;0,049101119;0,027744282;-0,022382546;0,011869161;-0,044055596;-0,08035057;-0,016426212;-0,054309815;0,009922754;0,0526528;0,106235159;0,095990678;0,027815433;-0,026392128;1;1;0;0;0
0;0,529133629;1;0,5;2;0,615523388;0;0,545705388;2;0,830555556;0,8;0,794444444;0,790909091;1;0,030555556;-0,036111111;2,34114171;0,99277;-0,079029607;-0,02155207;0,310350685;0,669191426;0,414105585;0,15726338;0,020935122;-0,000973317;-0,07121624;-0,03054315;-0,023616346;-0,048627461;-0,062542893;0,006931806;-0,021646981;0,031396952;0,062897583;0,080043944;0,039908522;0,031373236;-0,006575729;1;1;0;0;0
1;0,528441487;1;0,532592608;1;0,615329181;0;0,549833997;2;0,794444444;0,830555556;0,797222222;0,790909091;1;-0,036111111;0,002777778;2,114224607;0,997188136;-0,097566325;-0,042349538;0,341221481;0,721236603;0,411584835;0,128406003;-0,000356087;-0,006385824;-0,027910311;-0,037372179;-0,01813492;-0,038936702;-0,035617827;-0,007501526;0,005317572;0,058048793;0,07751959;0,11779172;0,06549815;0,02503986;-0,011774224;1;1;0;0;0
1;0,527749235;1;0,532592608;1;0,612621956;0;0,542260047;2;0,797222222;0,794444444;0,772222222;0,790909091;1;0,002777778;-0,025;2,247152252;0,99741718;-0,084500309;0,000379846;0,398527579;0,708871182;0,423774443;0,1031829;-0,002302704;-0,102854025;-0,10229027;-0,138315726;-0,105108378;-0,129736581;-0,106774976;-0,081364682;-0,048011666;0,012201468;0,004747854;0,022501183;0,020389341;-0,007762645;0,010943439;1;1;0;0;0
1;0,529133629;1;0,533284038;1;0,618140776;0;0,548458528;2;0,772222222;0,797222222;0,758333333;0,790909091;1;-0,025;-0,013888889;2,147616422;0,998928446;-0,038154492;-0,01386295;0,430276895;0,745270161;0,422917092;0,160040405;0,027246123;-0,023355358;-0,010160131;-0,018372262;-0,008830836;-0,018680752;-0,002611329;0,001732979;0,008284871;0,047395859;0,099846621;0,12768215;0,079029612;0,021528352;-0,002540117;1;1;0;0;0
1;0,528441487;1;0,531209373;1;0,614369068;0;0,543638687;2;0,758333333;0,772222222;0,758333333;0,790909091;1;-0,013888889;-8,88E-16;2,243260233;0,997561054;0,002302714;-0,021575803;0,357332772;0,720575294;0,434619356;0,151957013;0,023687527;-0,032179559;-0,050095717;-0,039766307;-0,028361014;-0,045453416;-0,04057215;-0,035475562;-0,002231503;0,0169246;0,032464134;0,058971471;0,033436397;0,000854623;-0,002824982;1;1;0;0;0
1;0,528441487;1;0,528441487;0;0,651968438;0;0,535357553;1;0,758333333;0,758333333;0,783333333;0,790909091;1;-8,88E-16;0,025;2,37871386;0,969310073;-0,050971832;-0,099823117;0,152559927;0,61671398;0,334049206;0,024612824;-0,075135881;-0,137570532;-0,149474595;-0,138036302;-0,175819891;-0,171122788;-0,033033271;-0,029309806;-0,000664704;0,062022651;0,11345865;0,132163173;0,133655655;0,123102383;0,120015084;1;1;0;0;0
1;0,529825659;1;0,529133629;0;0,607419746;1;0,541570483;2;0,783333333;0,758333333;0,816666667;0,790909091;1;0,025;0,033333333;2,522486305;0,927373632;-0,060248848;-0,081152452;0,1790158;0,529636722;0,315084038;0,115496916;0,024541648;0,006195915;-0,003655858;-0,001495582;-0,001281928;-0,001756716;-0,021931716;-0,005768614;-0,00541254;0,018609565;0,032345558;0,046922117;0,008925791;-0,011489383;-0,010967173;1;1;0;0;0
1;0,529825659;1;0,531901052;1;0,616370673;0;0,548458528;2;0,816666667;0,783333333;0,813888889;0,790909091;1;0,033333333;-0,002777778;2,447056337;0,939110345;-0,087351588;-0,113833579;0,165217383;0,548330482;0,302111204;0,048864289;-0,068168726;-0,103417737;-0,114021039;-0,11645715;-0,115145571;-0,115614038;-0,088647138;-0,062873947;-0,015595547;0,025372013;0,052652812;0,050853443;0,022880823;-0,003703331;-0,014242685;1;1;0;0;0
1;0,529825659;1;0,534666513;1;0,611553123;0;0,551208705;2;0,891666667;0,922222222;0,9;0,918055556;1;-0,030555556;0,008333333;2,050637442;0,998533281;-0,007150168;-0,014212947;0,38780427;0,718759782;0,475790663;0,216199175;0,063616523;-0,000780025;-0,013519704;-0,016985697;-0,019671575;-0,01761387;-0,035692918;-0,008926785;0,035000434;0,083958588;0,133451244;0,162589041;0,131577979;0,060249347;0,013151434;1;1;0;0;0
1;0,529825659;1;0,536048456;1;0,615904247;0;0,551895767;2;0,9;0,891666667;0,863888889;0,918055556;1;0,008333333;-0,036111111;2,147720036;0,995741828;-0,012696489;-0,028593354;0,33026623;0,691960398;0,436000621;0,169941925;0,033961626;-0,026731366;-0,043935121;-0,048086478;-0,048951141;-0,050874743;-0,045902896;-0,020537937;0,016379186;0,062839598;0,108772317;0,131748313;0,100350129;0,047113643;0,003120119;1;1;0;0;0
1;0,528441487;1;0,534666513;1;0,614685962;0;0,550521448;2;0,863888889;0,9;0,838888889;0,918055556;1;-0,036111111;-0,025;2,002068697;0,992975334;-0,003206781;-0,014104622;0,312938509;0,676251697;0,416587718;0,126890743;0,01536107;-0,013433065;-0,021924032;-0,02105773;-0,026774668;-0,029221181;-0,038267837;-0,009381763;0,010031732;0,052906006;0,102773304;0,109371792;0,069979898;0,023266727;-0,013324746;1;1;0;0;0
1;0,527056877;1;0,53881066;1;0,608337676;1;0,550521448;2;0,838888889;0,863888889;0,919444444;0,918055556;1;-0,025;0,080555556;2,278058199;0,996983152;-0,000476688;-0,009013453;0,352090463;0,72333673;0,40903828;0,034394475;-0,019086775;-0,042421223;-0,047632501;-0,048562051;-0,055649672;-0,056772822;-0,033550413;0,009295101;0,046097483;0,121664199;0,164486961;0,175722493;0,132685018;0,060681112;0,034307899;1;1;0;0;0
1;0,526364414;1;0,533284038;1;0,606205009;1;0,551208705;2;0,919444444;0,838888889;0,983333333;0,918055556;1;0,080555556;0,063888889;2,71573961;0,99291793;-0,046248835;-0,049621197;0,346688099;0,698053775;0,310904335;-0,014732851;-0,068535135;-0,077479175;-0,077134564;-0,062559035;-0,065277993;-0,063508625;-0,03638538;-0,018826862;0,026947885;0,080084674;0,139065248;0,163875542;0,129000714;0,066054656;0,018458645;1;1;0;0;0
1;0,527749235;1;0,535357553;1;0,609097105;1;0,554642009;2;0,983333333;0,919444444;0,991666667;0,918055556;1;0,063888889;0,008333333;2,370660988;0,998261753;-0,032576435;-0,028506747;0,37607126;0,736861724;0,432589969;0,085765553;-0,024003013;-0,054720803;-0,055390463;-0,058673216;-0,053813457;-0,045427208;-0,026796326;-0,006196841;0,019671576;0,083614328;0,141868919;0,162272593;0,108857955;0,044864984;0,007735154;1;1;0;0;0
1;0,529133629;1;0,539500846;1;0,614765851;0;0,556013891;2;0,991666667;0,983333333;0,95;0,918055556;1;0,008333333;-0,041666667;1,997508346;0,999430519;-0,016032597;-0,020104754;0,398684258;0,759658234;0,497190269;0,162968717;0,010660011;-0,044346015;-0,050247997;-0,0636381;-0,068729226;-0,065385871;-0,045946134;-0,020083104;0,021577508;0,078620555;0,130023308;0,137216144;0,105859475;0,041599309;0,006500168;1;1;0;0;0
1;0,528441487;1;0,538120326;1;0,611095087;0;0,551208705;2;0,95;0,991666667;0,919444444;0,918055556;1;-0,041666667;-0,030555556;1,860974731;0,999382493;-0,013519724;-0,019498316;0,420858298;0,759804813;0,472750987;0,140063782;-0,003575129;-0,050982799;-0,06266695;-0,07116568;-0,066399819;-0,058694805;-0,050745073;-0,023743153;0,014039636;0,066637105;0,125696718;0,151790627;0,116901102;0,05541207;0,016812421;1;1;0;0;0
1;0,529825659;1;0,536048456;1;0,606619541;1;0,537429845;1;0,675;0,694444444;0,716666667;0,713461538;1;-0,019444444;0,041666667;2,360148632;0,999868915;-0,010970538;0,108013371;0,540993387;0,73870298;0,56679076;0,239553371;-0,010089038;-0,128874039;-0,153640807;-0,14300709;-0,134264549;-0,134937812;-0,113044805;-0,069046326;-0,000685691;0,069948033;0,091017166;0,073042217;0,041020189;0,016944615;0,009305465;1;1;0;0;0
1;0,531209373;2;0,537429845;1;0,612086991;0;0,541570483;2;0,716666667;0,675;0,716666667;0,713461538;1;0,041666667;2,22E-16;2,601715779;0,999935274;-0,016944617;0,094925774;0,534028078;0,747518691;0,606964949;0,28343821;0,005387492;-0,131570274;-0,161759874;-0,154118983;-0,145405046;-0,139551087;-0,114591782;-0,057338785;0,013321112;0,071288194;0,08647382;0,06378008;0,034857913;0,013786315;-0,003844723;1;1;0;0;0
1;0,530517575;2;0,54019088;1;0,610646157;0;0,541570483;2;0,716666667;0,716666667;0,736111111;0,713461538;1;2,22E-16;0,019444444;2,393477665;0,999982203;0,008228045;0,194007528;0,613786992;0,759995423;0,609310615;0,305999726;0,045224428;-0,10149819;-0,14828034;-0,154668793;-0,143390878;-0,139166886;-0,128585057;-0,09143001;-0,039944458;0,034050744;0,074698359;0,069631222;0,033292444;0,010578757;0,003820227;1;1;0;0;0
1;0,531209373;2;0,539500846;1;0,614907088;0;0,544327758;2;0,736111111;0,716666667;0,730555556;0,713461538;1;0,019444444;-0,005555556;2,430249972;0,99995526;-0,021253077;0,132532748;0,568318001;0,751084142;0,597223969;0,300551827;0,055996217;-0,105374474;-0,155314108;-0,153832069;-0,142263384;-0,133206329;-0,117877246;-0,077717332;-0,019392697;0,052162729;0,093566576;0,083361867;0,052651158;0,021057256;0,005632367;1;1;0;0;0
1;0,530517575;2;0,539500846;1;0,609676087;1;0,541570483;2;0,730555556;0,736111111;0,738888889;0,713461538;1;-0,005555556;0,008333333;2,324712333;0,999922641;0,000881597;0,154883925;0,579094693;0,74433585;0,564175465;0,251267279;0,019784367;-0,11352828;-0,142719223;-0,136404145;-0,127308394;-0,121642714;-0,096090507;-0,05462903;0,016748783;0,086473833;0,102007143;0,08229176;0,048449862;0,019098949;0,011460269;1;1;0;0;0
1;0,531209373;2;0,53881066;1;0,614287159;0;0,54088076;2;0,738888889;0,730555556;0,708333333;0,713461538;1;0,008333333;-0,030555556;2,299887624;0,999940879;-0,019392689;0,09774011;0,519734914;0,749414221;0,616830424;0,305156053;0,064779985;-0,089462623;-0,147801294;-0,145596812;-0,136187824;-0,130318676;-0,13666851;-0,090458554;-0,018217652;0,055776503;0,079274952;0,055092923;0,03025891;0,012831422;-5,84E-10;1;1;0;0;0
1;0,531209373;2;0,541570483;1;0,610944324;0;0,54019088;2;0,708333333;0,738888889;0,711111111;0,713461538;1;-0,030555556;0,002777778;2,185307644;0,99996867;-0,021644719;0,133013889;0,571162811;0,756162587;0,612564474;0,3112065;0,048058938;-0,107819739;-0,155815932;-0,156867103;-0,144470052;-0,131401815;-0,115461702;-0,084820792;-0,03427088;0,024679704;0,087931987;0,102588722;0,073919054;0,041215781;0,021228593;1;1;0;0;0
1;0,531901052;2;0,537429845;1;0,614636184;0;0,542260047;2;0,711111111;0,708333333;0,713888889;0,713461538;1;0,002777778;0,002777778;2,368048433;0,999943997;-0,016650834;0,096284612;0,527060253;0,747215994;0,616648339;0,304067446;0,039455443;-0,115147591;-0,166430444;-0,167168473;-0,158490939;-0,152397194;-0,1298372;-0,092109903;-0,02849723;0,042780299;0,08248634;0,070605974;0,039162044;0,011460266;0,005093639;1;1;0;0;0
1;0,531901052;2;0,538120326;1;0,615949162;0;0,543638687;2;0,713888889;0,711111111;0,697222222;0,713461538;1;0,002777778;-0,016666667;2,315120897;0,999937632;-0,017728022;0,100455922;0,534028071;0,74320886;0,602428989;0,317209822;0,067486351;-0,106657784;-0,165192022;-0,168334642;-0,154597082;-0,150195795;-0,127910656;-0,088612333;-0,024092325;0,056948225;0,095314034;0,082778179;0,053823278;0,023186727;0,009991089;1;1;0;0;0
1;0,530517575;2;0,536048456;1;0,609634473;1;0,539500846;1;0,697222222;0,713888889;0,697222222;0,713461538;1;-0,016666667;8,88E-16;2,255623685;0,999918503;-0,016161209;0,124826124;0,561381097;0,741626157;0,576026548;0,270391944;0,013247657;-0,128970376;-0,158037304;-0,150794166;-0,134577167;-0,127501116;-0,102782552;-0,064755586;-0,008228043;0,046886139;0,099098196;0,095411111;0,065535914;0,040042255;0,023015408;1;1;0;0;0
1;0,529825659;1;0,537429845;1;0,608136981;1;0,54019088;2;0,697222222;0,697222222;0,738888889;0,713461538;1;8,88E-16;0,041666667;2,466648927;0,999947676;-0,020200505;0,119712138;0,559567133;0,753253489;0,602553784;0,254087088;-0,004309999;-0,129259336;-0,16147369;-0,157273143;-0,148663518;-0,150004306;-0,134745474;-0,101522426;-0,041117978;0,0259523;0,070021144;0,075477589;0,04705718;0,025291537;0,002448876;1;1;0;0;0
1;0,531209373;2;0,53881066;1;0,619075142;0;0,546393941;2;0,747222222;0,733333333;0,716666667;0,725462963;1;0,013888889;-0,030555556;2,326697471;0,9999656;0,004981132;0,130105146;0,540292155;0,746600222;0,637199284;0,346416305;0,074433827;-0,083971384;-0,139814359;-0,150565605;-0,137240497;-0,120658232;-0,130630619;-0,095636831;-0,046158407;0,009670455;0,044946006;0,050788482;0,042448054;0,015744053;0,006414686;1;1;0;0;0
1;0,530517575;2;0,54088076;1;0,61101148;0;0,542260047;2;0,716666667;0,747222222;0,741666667;0,725462963;1;-0,030555556;0,025;2,23687063;0,999936612;-0,03106763;0,123721994;0,569198905;0,74771654;0,580070095;0,28912081;0,033422126;-0,105354156;-0,141814962;-0,143671618;-0,136453671;-0,134664786;-0,142005437;-0,101411819;-0,037693226;0,028858469;0,075472783;0,066963186;0,035363699;0,014383658;0,004762455;1;1;0;0;0
1;0,531901052;2;0,54019088;1;0,61442166;0;0,542260047;2;0,741666667;0,716666667;0,716666667;0,725462963;1;0,025;-0,025;2,408382971;0,999951503;-0,016618564;0,12577913;0,549025026;0,746471142;0,60872205;0,32224603;0,070735757;-0,092072353;-0,146098028;-0,148285049;-0,141243485;-0,128552164;-0,135213479;-0,100257364;-0,029538247;0,045649208;0,094673693;0,083488832;0,04787977;0,026211946;0,008261258;1;1;0;0;0
1;0,531901052;2;0,54019088;1;0,620200589;0;0,547082318;2;0,716666667;0,741666667;0,702777778;0,725462963;1;-0,025;-0,013888889;2,171062756;0,999973341;-0,00787252;0,137145137;0,556047063;0,751421373;0,630337201;0,355619719;0,102830469;-0,086480078;-0,146002909;-0,150826823;-0,13967144;-0,128074206;-0,120418777;-0,074216332;0,003304578;0,07102588;0,098525163;0,069575171;0,040410484;0,014480819;-0,007678141;1;1;0;0;0
1;0,531209373;2;0,535357553;1;0,614573608;0;0,54019088;2;0,702777778;0,716666667;0,675;0,725462963;1;-0,013888889;-0,027777778;2,197961586;0,999832517;-0,00379052;0,104392922;0,516458573;0,730750769;0,57221361;0,250284401;-0,009427503;-0,133089845;-0,159955743;-0,155216759;-0,15180025;-0,153793661;-0,135714379;-0,101411824;-0,046813048;0,011857056;0,060090315;0,068801345;0,047103977;0,027790192;0,011079608;1;1;0;0;0
1;0,531209373;2;0,536739221;1;0,608012481;1;0,538120326;1;0,675;0,702777778;0,708333333;0,725462963;1;-0,027777778;0,033333333;2,288901775;0,999842326;-0,00184668;0,105642491;0,538690096;0,729616434;0,561062328;0,262044845;0,003693336;-0,124463645;-0,151040522;-0,1395523;-0,130558964;-0,126066087;-0,103527622;-0,064930989;-0,00213825;0,055731285;0,084550423;0,074892918;0,043709229;0,027984436;0,010982433;1;1;0;0;0
1;0,531209373;2;0,537429845;1;0,609747165;1;0,53881066;1;0,708333333;0,675;0,716666667;0,725462963;1;0,033333333;0,008333333;2,576926228;0,999897512;-0,00359614;0,11236518;0,511380446;0,733322003;0,60436007;0,302777327;0,046570593;-0,10227749;-0,145884008;-0,143243254;-0,134473923;-0,131991746;-0,147239259;-0,109389217;-0,054471597;0,008066892;0,057862645;0,06018716;0,039440108;0,015161033;0,009233126;1;1;0;0;0
1;0,531209373;2;0,54019088;1;0,611175891;0;0,542260047;2;0,716666667;0,708333333;0,75;0,725462963;1;0,008333333;0,033333333;2,481735642;0,999942437;-0,01448082;0,136668288;0,548209745;0,7364512;0,610249259;0,318648498;0,056893907;-0,113660533;-0,162109556;-0,165041935;-0,147738427;-0,138408509;-0,12644866;-0,093903056;-0,032451237;0,043806236;0,088505515;0,082234;0,048267653;0,029999504;0,01766309;1;1;0;0;0
1;0,531209373;2;0,539500846;1;0,613412746;0;0,545016659;2;0,75;0,716666667;0,761111111;0,725462963;1;0,033333333;0,011111111;2,550109553;0,999899501;-0,011006723;0,148094928;0,571101273;0,729161579;0,566630921;0,273817879;0,028275778;-0,11620214;-0,155382745;-0,147809732;-0,129722926;-0,12446364;-0,117352552;-0,094770019;-0,041962953;0,030217988;0,080013257;0,090698913;0,061446003;0,032378429;0,016569985;1;1;0;0;0
1;0,531209373;2;0,54088076;1;0,615254715;0;0,545016659;2;0,761111111;0,75;0,736111111;0,725462963;1;0,011111111;-0,025;2,316807842;0,999970625;-0,011565512;0,183723972;0,593578548;0,744354897;0,606315182;0,329131537;0,083899018;-0,088770693;-0,151729026;-0,152678447;-0,138980449;-0,136286748;-0,127787389;-0,097658835;-0,0489464;0,019339101;0,079240636;0,09284325;0,066479373;0,037256469;0,017201561;1;1;0;0;0
1;0,519434648;1;0,527056877;0;0,591676799;1;0,53881066;1;0,147222222;0,869444444;1,022222222;0,54624183;1;-0,722222222;0,875;1,493779738;0,945811638;0,177444057;0,328976853;0,42103868;0,457744101;0,296682942;-0,036450142;-0,042153681;-0,009564628;-0,026031967;-0,036582789;-0,073398139;-0,094963723;-0,670960249;-0,278588184;-0,077691033;-0,019924311;-0,027890484;-0,050703766;0,003453979;-0,05421449;-0,029416964;1;1;0;0;0
0;0,564909408;2;0,5;2;0,639283233;0;0,551895767;2;1,022222222;0,147222222;0,841666667;0,54624183;2;0,875;-0,180555556;80,98830778;0,999968102;-0,102790748;-0,04281672;0,074124814;0,273556591;0,121613591;-0,009298982;-0,487452509;-0,747084244;-0,624763084;-0,278588184;-0,085872365;-0,051233767;-0,029416964;0,01673705;0,095621921;0,1422372;0,188998687;0,219548469;0,190791475;0,167390183;0,127760282;1;1;0;0;0
1;0,566274394;2;0,517354137;0;0,796854357;0;0,546393941;2;0,841666667;1,022222222;0,144444444;0,54624183;1;-0,180555556;-0,697222222;0,79081866;0,999971696;-0,044606696;-0,009298962;0,070094099;0,242747689;0,003188288;-0,02145138;-0,344289289;-0,729285913;-0,683331395;-0,4261077;-0,151336002;-0,005845159;-0,063415288;0,071614155;0,027624984;0,105878655;0,096674869;0,285679876;0,176671975;0,172292715;0,11847124;1;1;0;0;0
0;0,518047711;1;0,5;2;0,596316973;1;0,536739221;1;0,144444444;0,841666667;0,830555556;0,54624183;1;-0,697222222;0,686111111;1,196730605;0,895260644;0,200756236;0,287569822;0,384146818;0,433472492;0,269742272;-0,022048907;-0,016205821;-0,065796525;-0,120893685;-0,059643495;-0,028952382;-0,043280817;-0,71050844;-0,32779165;-0,083168445;-0,108964515;-0,0318723;0,100358461;0,006775059;-0,057657665;0,014877675;1;1;0;0;0
0;0,564909408;2;0,5;2;0,772476977;0;0,543638687;2;0,830555556;0,144444444;0,152777778;0,54624183;3;0,686111111;-0,677777778;34,32260119;0,999990581;-0,042617809;-0,049643647;0,011955594;0,15406072;0,01168993;-0,190087339;-0,606408633;-0,761594156;-0,616596513;-0,254649627;-0,083168445;-0,100292702;-0,070094098;0,095621923;0,158013871;0,138590854;0,233097687;0,266783424;0,274908023;0,139893557;0,239682346;1;1;0;0;0
1;0,516660497;1;0,545705388;1;0,721184525;0;0,575121427;2;0,152777778;0,830555556;0,286111111;0,54624183;1;-0,677777778;0,133333333;0,335229159;0,851754744;0,178987585;0,221128439;0,3550748;0,438207367;0,375393075;0,065267436;-0,107914241;-0,047788214;-0,015940198;-0,060239153;-0,097990746;-0,068705922;-0,29371181;-0,066325578;-0,035587732;0,015674578;0,091869091;0,177186716;0,37641974;0,228633003;0,151076379;1;1;0;0;0
0;0,566274394;2;0,5;2;0,643374508;0;0,534666513;1;0,286111111;0,152777778;0,783333333;0,54624183;2;0,133333333;0,497222222;29,99325662;0,999576754;-0,068705922;-0,132853297;-0,011623508;0,125015103;0,010892982;-0,159373612;-0,314447446;-0,645368268;-0,603080271;-0,29371181;-0,120828224;-0,101410394;0,107454668;0,027890464;0,398099308;0,217018143;0,26703018;0,236925696;0,089826959;0,168164828;0,09792496;1;1;0;0;0
0;0,545705388;2;0,5;2;0,610134264;1;0,52567185;0;0,783333333;0,286111111;0,936111111;0,54624183;2;0,497222222;0,152777778;18,40741613;0,934835483;0,1567831;0,041424296;0,027890464;0,400332787;0,269988614;0,210933507;0,279813064;0,222075849;0,089826959;0,140154035;0,145099492;0,061165652;-0,075842127;-0,15263378;-0,148219217;-0,020455456;0,043015623;-0,011158617;-0,053088532;-0,052558632;-0,035587755;1;1;0;0;0
0;0,566956512;2;0,5;2;0,795034554;0;0,56080862;2;0,936111111;0,783333333;0,15;0,54624183;2;0,152777778;-0,786111111;1,631532157;0,999563558;-0,04911354;-0,128740234;-0,013815115;0,156005537;0,125211245;0,072935685;-0,295410309;-0,637550135;-0,659406923;-0,291039057;-0,111654731;-0,095621924;-0,033199367;0,066986872;0,022314456;0,19565114;0,232406596;0,279568146;0,281281737;0,172292707;0,111917081;1;1;0;0;0
0;0,515273025;1;0,5;2;0,584619995;1;0,529825659;0;0,15;0,936111111;0,888888889;0,54624183;1;-0,786111111;0,738888889;1,056270049;0,769338488;0,198013613;0,320897205;0,328917639;0,405673766;0,208456954;-0,064209088;-0,061628846;-0,117226728;-0,069697522;-0,071085501;-0,11611293;-0,062092081;-0,647996147;-0,365421341;-0,147439589;-0,005579497;0,059974429;0,010428046;-0,022779198;-0,020057094;0,018529918;1;1;0;0;0
0;0,564909408;2;0,5;2;0,782024674;0;0,548458528;2;0,888888889;0,15;0,158333333;0,54624183;3;0,738888889;-0,730555556;36,35197607;0,999725035;-0,072473206;-0,045137049;0,122987611;0,340536625;0,269927021;0,069433085;-0,489677496;-0,683189735;-0,493706646;-0,213977924;-0,063679924;0,056796987;-0,020986637;0,03160686;0,211187352;0,20050123;0,1928388;0,256574194;0,205023376;0,080397345;0,110080164;1;1;0;0;0
0;0,516660497;1;0,5;2;0,585012962;1;0,532592608;1;0,158333333;0,888888889;1,038888889;0,54624183;1;-0,730555556;0,880555556;1,463033434;0,883970762;0,165323475;0,309410827;0,417150985;0,446328733;0,297772933;0,017533897;0,024903506;-0,010295224;-0,035057034;-0,030810574;-0,030810572;-0,073133887;-0,702457511;-0,463291706;-0,170100515;-0,03319935;0,020721048;0,012951788;0,006907894;-0,041755842;-0,003453989;1;1;0;0;0
0;0,565592025;2;0,5;2;0,78796477;0;0,513191383;0;1,038888889;0,158333333;0,288888889;0,54624183;2;0,880555556;-0,75;46,4534058;0,99993664;-0,078417212;-0,045070737;0,113294305;0,345693719;0,229702911;0,036649152;-0,423712749;-0,7166373;-0,635257924;-0,330516066;-0,101410412;0,001527733;-0,116047388;-0,141195785;-0,153671627;-0,154255261;-0,142692726;-0,132266;-0,132788053;-0,155227748;-0,168681142;1;1;0;0;0
1;0,564909408;2;0,518047711;0;0,774450992;0;0,531209373;1;0,288888889;1,038888889;0,15;0,54624183;1;-0,75;-0,138888889;0,168194421;0,999848434;-0,047324304;0,023376681;0,118667715;0,280731148;0,095424477;-0,054346931;-0,464907314;-0,709586269;-0,580071582;-0,322207399;-0,133310038;-0,039302229;0,085081091;0,03711347;0,190023306;0,092725235;0,334592399;0,311811417;0,105024764;0,151660498;0,176607624;1;1;0;0;0
0;0,528441487;1;0,5;2;0,624059313;0;0,520821285;0;0,15;0,288888889;0,597222222;0,54624183;1;-0,138888889;0,447222222;4,763253648;0,841250255;0,105812984;0,18669185;0,117161223;0,402784143;0,2033684;0,090617557;0,187525117;0,152568909;0,092198396;0,104696303;-0,05812107;0,012354073;-0,169132845;-0,129328108;-0,02669575;-0,000398538;-0,031009653;-0,044076379;-0,028487808;-0,072671395;-0,083959956;1;1;0;0;0
0;0,522207602;1;0,5;2;0,615509561;0;0,573083857;2;1,072222222;1,027777778;1,116666667;1,059567901;1;0,044444444;0,044444444;2,104500596;0,999993045;0,148004585;0,526055445;0,670827765;0,735452108;0,50827679;-0,213148135;-0,395445603;-0,240554232;-0,144773022;-0,144611363;-0,154901335;-0,161059383;-0,090401174;-0,024514806;0,043398218;0,098256182;0,118489364;0,102791841;0,0552575;-0,004623216;-0,065292888;1;1;0;0;0
0;0,523593576;1;0,5;2;0,617514952;0;0,575121427;2;1,116666667;1,072222222;1,113888889;1,059567901;1;0,044444444;-0,002777778;1,929690125;0,999950891;0,135546372;0,478075605;0,597463957;0,659015065;0,530578513;-0,042079704;-0,430094853;-0,333044037;-0,184126628;-0,150103395;-0,153652151;-0,160375762;-0,102914362;-0,011929069;0,069853941;0,131167543;0,141497944;0,117634592;0,073960471;0,014487912;-0,057561766;1;1;0;0;0
0;0,524979187;1;0,5;2;0,607941708;1;0,561492677;2;1,113888889;1,116666667;1,091666667;1,059567901;1;-0,002777778;-0,022222222;1,700377664;0,999986606;0,081878914;0,43522823;0,633766609;0,70187507;0,582693885;0,004994716;-0,398575131;-0,287241914;-0,13813876;-0,108384;-0,106262212;-0,123776873;-0,082821886;-0,035979749;0,043563026;0,109403736;0,092079544;0,157116439;0,162747664;0,085854802;0,058055453;1;1;0;0;0
0;0,521514485;1;0,5;2;0,620747076;0;0,574442517;2;1,091666667;1,113888889;1,052777778;1,059567901;1;-0,022222222;-0,038888889;1,657078775;0,999997603;0,179975897;0,522193273;0,67592659;0,755824251;0,581192432;-0,182850163;-0,440932238;-0,26850159;-0,110178578;-0,125646169;-0,119303265;-0,127433366;-0,08499426;-0,07958235;-0,004210424;0,008544541;0,030371984;0,033505977;0,049164872;0,020100156;-0,041131933;1;1;0;0;0
0;0,521514485;1;0,5;2;0,624764728;0;0,575121427;2;1,052777778;1,091666667;0,983333333;1,059567901;1;-0,038888889;-0,069444444;1,644643855;0,999992431;0,228070397;0,559698546;0,66589453;0,723184151;0,532592275;-0,176458727;-0,431439618;-0,301567997;-0,183807564;-0,165398716;-0,169892026;-0,191454072;-0,133844126;-0,075027779;-0,006109214;0,050153138;0,10854717;0,093348177;0,064265244;0,02760862;-0,038617909;1;1;0;0;0
0;0,521514485;1;0,5;2;0,606334915;1;0,561492677;2;0,983333333;1,052777778;1,019444444;1,059567901;1;-0,069444444;0,036111111;1,769632241;0,993023885;0,091138081;0,339743216;0,427433309;0,480746103;0,170533353;-0,38283583;-0,410245295;-0,208888533;-0,102505932;-0,081386866;-0,063730819;-0,07153791;-0,028144839;0,008916025;0,032722553;0,092243244;0,11572089;0,142226012;0,106221406;0,041090725;0,048629536;1;1;0;0;0
0;0,523593576;1;0,5;2;0,593395362;1;0,543638687;2;1,019444444;0,983333333;1,058333333;1,059567901;1;0,036111111;0,038888889;2,188355972;0,999992119;0,066731368;0,431573982;0,65676746;0,730870489;0,536719326;-0,242109228;-0,405703396;-0,220386543;-0,124020754;-0,122394657;-0,125158619;-0,150264789;-0,11523214;-0,078597859;-0,060688001;-0,008957299;0,023813472;0,031279272;0,058384576;0,025422379;0,056039376;1;1;0;0;0
0;0,524979187;1;0,5;2;0,632902051;0;0,548458528;2;0,725;0,713888889;0,716666667;0,708547009;1;0,011111111;-0,008333333;2,38009403;0,996419066;-0,013266153;0,066108375;0,410605043;0,670242314;0,265076866;-0,331187764;-0,259604126;-0,145543269;-0,121776582;-0,123989814;-0,137412178;-0,13435817;-0,251363824;-0,213102444;-0,081923871;0,043058422;0,092388112;0,093244953;0,055775453;0,02436831;0,004148613;1;1;0;0;0
0;0,526364414;1;0,5;2;0,629034885;0;0,543638687;2;0,716666667;0,725;0,708333333;0,708547009;1;-0,008333333;-0,008333333;2,273458304;0,998096871;-0,00635249;0,067054874;0,437677828;0,679141086;0,345689729;-0,274852643;-0,313062698;-0,182042665;-0,119221377;-0,115470849;-0,125861619;-0,144020181;-0,259281697;-0,217059161;-0,164269574;-0,030456931;0,086772384;0,127094819;0,089816706;0,052328371;0,038183219;1;1;0;0;0
0;0,52567185;1;0,5;2;0,62778644;0;0,544327758;2;0,708333333;0,716666667;0,713888889;0,708547009;1;-0,008333333;0,005555556;2,312723649;0,996246234;-0,024584188;0,05461218;0,378501803;0,671026995;0,275970865;-0,310253477;-0,286953062;-0,186050758;-0,167463537;-0,180203607;-0,184882358;-0,192717081;-0,311346559;-0,290122378;-0,18438146;-0,045387433;0,04042691;0,064516235;0,026829903;0,027823112;-0,004969637;1;1;0;0;0
0;0,52567185;1;0,5;2;0,630330368;0;0,546393941;2;0,713888889;0,708333333;0,711111111;0,708547009;1;0,005555556;-0,002777778;2,368048433;0,998660427;-0,005617839;0,074106753;0,457887694;0,711823579;0,349527011;-0,223637736;-0,265880214;-0,166119117;-0,111034184;-0,125181083;-0,122798258;-0,145543295;-0,234121045;-0,213102455;-0,137072993;-0,017845765;0,076126366;0,135885534;0,108985002;0,072129487;0,04560309;1;1;0;0;0
0;0,526364414;1;0,5;2;0,64828247;0;0,56080862;2;0,711111111;0,713888889;0,713888889;0,708547009;1;-0,002777778;0,002777778;2,335838074;0,997057698;-0,013741414;0,030068329;0,403429995;0,699656535;0,357015624;-0,204671341;-0,184214439;-0,150615308;-0,150277407;-0,144527912;-0,166623329;-0,18220978;-0,311034308;-0,231505186;-0,029895629;0,11427679;0,093459101;0,071613581;0,036974875;-0,012618016;-0,036457051;1;1;0;0;0
0;0,52567185;1;0,5;2;0,636963745;0;0,550521448;2;0,713888889;0,711111111;0,697222222;0,708547009;1;0,002777778;-0,016666667;2,315120897;0,998105967;-0,064602313;0,033090339;0,387242236;0,706842404;0,435544246;-0,180203607;-0,196542215;-0,158208441;-0,12926251;-0,134697619;-0,153823526;-0,153485969;-0,287270305;-0,241785322;-0,126542023;0,023763619;0,085528495;0,069205578;0,056292401;0,011581033;-0,001728572;1;1;0;0;0
0;0,52567185;1;0,5;2;0,629847345;0;0,545705388;2;0,697222222;0,713888889;0,716666667;0,708547009;1;-0,016666667;0,019444444;2,306762895;0,996172414;-0,014043872;0,057455428;0,41776521;0,682387286;0,278045608;-0,265558897;-0,220679841;-0,149263533;-0,134697635;-0,150108476;-0,14452795;-0,159556419;-0,257023;-0,21326743;-0,143681591;-0,000993927;0,061115741;0,101677293;0,064903467;0,03904618;0,030068326;1;1;0;0;0
0;0,52567185;1;0,5;2;0,641145568;0;0,553955755;2;0,716666667;0,697222222;0,677777778;0,708547009;1;0,019444444;-0,038888889;2,351269708;0,995118893;-0,026916245;0,046939832;0,395293883;0,671193279;0,257830012;-0,286477084;-0,238364495;-0,13418842;-0,099067736;-0,112741107;-0,111717021;-0,141649492;-0,233957584;-0,176856591;-0,062665472;0,073376091;0,130112319;0,09170253;0,056292401;0,018839407;0,009161292;1;1;0;0;0
0;0,52567185;1;0,5;2;0,624636572;0;0,543638687;2;0,677777778;0,716666667;0,705555556;0,708547009;1;-0,038888889;0,027777778;2,212232875;0,993895381;-0,019530537;0,056981587;0,394746815;0,645166607;0,27197376;-0,289013895;-0,25944295;-0,154498556;-0,148925521;-0,152641943;-0,167127478;-0,158208461;-0,2490954;-0,206657931;-0,159050997;0,011883481;0,107276631;0,149094541;0,11171708;0,070753676;0,073505021;1;1;0;0;0
0;0,524979187;1;0,5;2;0,626905275;0;0,545705388;2;0,705555556;0,677777778;0,697222222;0,708547009;1;0,027777778;-0,008333333;2,493235393;0,999260285;-0,041979987;0,089002211;0,470936448;0,722464204;0,375201924;-0,247797846;-0,285048455;-0,212277276;-0,110351212;-0,12773245;-0,121606281;-0,121606293;-0,250472959;-0,196874596;-0,139616258;-0,042368185;0,136267249;0,247189338;0,243412214;0,156016772;0,117346573;1;1;0;0;0
0;0,526364414;1;0,5;2;0,630088184;0;0,545705388;2;0,697222222;0,705555556;0,713888889;0,708547009;1;-0,008333333;0,016666667;2,347066477;0,999274653;-0,09452999;0,015815262;0,417765243;0,72937342;0,419226684;-0,235346074;-0,293443406;-0,190385867;-0,139277262;-0,156185417;-0,164269566;-0,18421451;-0,308064745;-0,286001053;-0,187093571;-0,014519142;0,026095721;0,097184536;0,07333302;0,048535099;0,045603016;1;1;0;0;0
1;0,52567185;1;0,53881066;1;0,634145548;0;0,549146357;2;0,719444444;0,686111111;0,702777778;0,709615385;1;0,033333333;-0,016666667;2,496335515;0,998657386;-0,021824175;0,088257517;0,47674392;0,708512657;0,343816907;-0,246174672;-0,231373662;-0,163525662;-0,139564742;-0,138217809;-0,161233295;-0,160086452;-0,279594244;-0,245990381;-0,136870378;0,008927028;0,062360731;0,099148321;0,060748177;0,010398401;0,013537199;1;1;0;0;0
1;0,52567185;1;0,53881066;1;0,630371228;0;0,548458528;2;0,702777778;0,719444444;0,719444444;0,709615385;1;-0,016666667;0,016666667;2,297242039;0,999312578;-0,011575482;0,089912024;0,488706945;0,726337082;0,343341005;-0,281040552;-0,283207599;-0,164480324;-0,140718905;-0,141295819;-0,148211105;-0,162188693;-0,281401912;-0,215716596;-0,101284908;0,019519765;0,091420074;0,09214966;0,062116387;0,031186205;-0,008632774;1;1;0;0;0
1;0,526364414;1;0,538120326;1;0,632172341;0;0,548458528;2;0,719444444;0,702777778;0,725;0,709615385;1;0,016666667;0,005555556;2,454338604;0,998855003;-0,016920942;0,048620089;0,431082313;0,707974802;0,33343812;-0,306139425;-0,323109807;-0,194479237;-0,165243822;-0,168105117;-0,159321708;-0,169248835;-0,300081448;-0,235455011;-0,102644085;0,036967516;0,120953028;0,097302401;0,061139143;0,029618086;-0,002354426;1;1;0;0;0
1;0,524979187;1;0,541570483;1;0,630131774;0;0,547770514;2;0,725;0,719444444;0,722222222;0,709615385;1;0,005555556;-0,002777778;2,362372866;0,999513426;-0,024520494;0,114519698;0,520435104;0,731098682;0,308271642;-0,314119294;-0,282485569;-0,178192014;-0,135522476;-0,150704766;-0,160086497;-0,17115401;-0,296685458;-0,23656663;-0,115052125;0,071199279;0,163812108;0,149458173;0,107688926;0,056446564;0,030402185;1;1;0;0;0
1;0,526364414;1;0,54019088;1;0,633616502;0;0,545016659;2;0,722222222;0,725;0,691666667;0,709615385;1;-0,002777778;-0,030555556;2,245593649;0,999615458;-0,029372992;0,064803374;0,457494878;0,73264753;0,475568083;-0,185401326;-0,299188459;-0,247096054;-0,159321715;-0,138795203;-0,147635374;-0,140911227;-0,273433418;-0,260130246;-0,154537438;-0,030500203;0,084557504;0,144659175;0,10497312;0,060161749;0,032754285;1;1;0;0;0
1;0,52567185;1;0,537429845;1;0,628554338;0;0,545705388;2;0,691666667;0,722222222;0,713888889;0,709615385;1;-0,030555556;0,022222222;2,239130648;0,999595173;-0,015449792;0,101916009;0,491836843;0,745488277;0,373602192;-0,277241333;-0,277603558;-0,153771252;-0,147827289;-0,151855048;-0,140911225;-0,164480319;-0,268342923;-0,229701696;-0,138987596;0,000294302;0,040542842;0,09214966;0,061725545;0,033538234;0,025108816;1;1;0;0;0
1;0,524979187;1;0,538120326;1;0,634690788;0;0,551208705;2;0,713888889;0,691666667;0,722222222;0,709615385;1;0,022222222;0,008333333;2,500494144;0,999343725;-0,036673608;0,087478755;0,450954591;0,741451754;0,408660488;-0,217399597;-0,235269602;-0,16142438;-0,115826452;-0,137255397;-0,127424366;-0,143986703;-0,271980446;-0,216277709;-0,08494706;0,021039721;0,092344201;0,039857261;0,038045134;0,010202235;-0,018637151;1;1;0;0;0
1;0,52567185;1;0,54019088;1;0,632630059;0;0,544327758;2;0,722222222;0,713888889;0,711111111;0,709615385;1;0,008333333;-0,011111111;2,357975255;0,999294075;0,002501584;0,109773156;0,512016117;0,733849505;0,398559779;-0,167723745;-0,161806567;-0,122402703;-0,126845282;-0,122402692;-0,13513724;-0,136870401;-0,283207571;-0,266885649;-0,145907559;-0,0084856;0,037506348;0,073395051;0,033195212;0,017656441;-0,00412029;1;1;0;0;0
1;0,526364414;1;0,537429845;1;0,632587495;0;0,546393941;2;0,711111111;0,722222222;0,694444444;0,709615385;1;-0,011111111;-0,016666667;2,239006086;0,99851169;-0,038681804;0,060503818;0,398848542;0,707117482;0,449859731;-0,15798288;-0,235269686;-0,167151662;-0,12375539;-0,147251498;-0,156452019;-0,168295756;-0,31217273;-0,288972231;-0,219081379;-0,043725508;0,037359368;0,092003751;0,073638931;0,038632811;0,020990663;1;1;0;0;0
1;0,527056877;1;0,538120326;1;0,630088184;0;0,545705388;2;0,694444444;0,711111111;0,713888889;0,709615385;1;-0,016666667;0,019444444;2,307829877;0,99833921;-0,011035989;0,057375473;0,407597555;0,691250085;0,393845785;-0,254634115;-0,305427976;-0,170582565;-0,154537385;-0,147635333;-0,170201565;-0,1886201;-0,314472933;-0,273070326;-0,197120747;-0,02662833;0,082121991;0,126459216;0,1061372;0,052534119;0,048032871;1;1;0;0;0
1;0,526364414;1;0,536048456;1;0,62952086;0;0,547082318;2;0,713888889;0,694444444;0,702777778;0,709615385;1;0,019444444;-0,011111111;2,428457996;0,997519052;-0,030010134;0,047494554;0,403211749;0,691326928;0,292385093;-0,308271638;-0,276697866;-0,153962781;-0,13552245;-0,150129451;-0,142833715;-0,162379723;-0,269616927;-0,253165635;-0,134944603;0,015498837;0,08669994;0,104585033;0,057668842;0,019225608;-0,001765821;1;1;0;0;0
1;0,52567185;1;0,533975341;1;0,610490933;1;0,568319983;2;1,063888889;1,144444444;1,002777778;1,069444444;1;-0,080555556;-0,061111111;1,465696146;0,99741217;0,000507221;-0,000682131;0,420225504;0,741706663;0,250918481;-0,116169546;-0,070805164;-0,018362924;-0,016719328;-0,013099609;-0,00706603;-0,002168814;0,026369511;0,049213369;0,100128598;0,177753648;0,298527439;0,437240951;0,466411668;0,204981141;0,004390081;1;1;0;0;0
1;0,526364414;1;0,529133629;0;0,608196381;1;0,568319983;2;1,002777778;1,063888889;1,047222222;1,069444444;1;-0,061111111;0,044444444;1,775087588;0,987057685;0,000577186;-0,026194721;0,244959762;0,686658927;0,278065603;-0,117256435;-0,067898307;-0,019044816;-0,017226407;-0,015460341;-0,007415822;-0,001679083;0,025530533;0,048375824;0,095000712;0,170358872;0,280645685;0,397916021;0,430368698;0,184722985;-0,006768708;1;1;0;0;0
1;0,52567185;1;0,531209373;1;0,607070523;1;0,567638376;2;1,047222222;1,002777778;1,083333333;1,069444444;1;0,044444444;0,036111111;2,159603246;0,994304705;-0,025740274;-0,032311126;0,390648549;0,714619416;0,203372061;-0,12368566;-0,06183725;-0,016019893;-0,015040663;-0,012155273;-0,009532013;-0,005299558;0,015390395;0,036573738;0,080213486;0,155375854;0,27612791;0,40079741;0,429285006;0,154624762;-0,011245898;1;1;0;0;0
1;0,526364414;1;0,529825659;0;0,596216368;1;0,561492677;2;1,083333333;1,047222222;1,158333333;1,069444444;1;0,036111111;0,075;2,066006618;0,995882777;-0,000961968;-0,019237128;0,329019891;0,735603243;0,288874584;-0,103002055;-0,058212333;-0,01969172;-0,012802334;-0,005876743;0,000769575;0,011263375;0,033988362;0,073884762;0,136890111;0,247851171;0,381241228;0,485618757;0,424192322;0,149704143;5,25E-05;1;1;0;0;0
1;0,52567185;1;0,533284038;1;0,61641085;0;0,573763326;2;1,158333333;1,083333333;1,002777778;1,069444444;1;0,075;-0,155555556;1,804301918;0,998713608;-0,005719313;0,003655503;0,444357339;0,761594156;0,289115035;-0,112389161;-0,074545751;-0,023240646;-0,018730097;-0,016299671;-0,011543196;-0,004232669;0,019377015;0,046630727;0,086049652;0,160969184;0,291373433;0,434691051;0,470507281;0,198134972;-0,003288195;1;1;0;0;0
1;0,52567185;1;0,535357553;1;0,61114116;0;0,571724093;2;1,002777778;1,158333333;1,052777778;1,069444444;1;-0,155555556;0,05;1,404333942;0,99646525;5,25E-05;-0,010441431;0,388423075;0,73292716;0,254438833;-0,117239179;-0,09220942;-0,032678044;-0,019481916;-0,0161423;-0,00879748;0,000839541;0,026509334;0,050120628;0,10165209;0,183303534;0,32110493;0,460092717;0,449717438;0,134555234;-0,005054703;1;1;0;0;0
0;0,526364414;1;0,5;2;0,609325606;1;0,566956512;2;0,9;0,958333333;1,025;1,018518519;1;-0,058333333;0,125;2,091527543;0,971727972;-0,03725581;-0,069578023;0,222088556;0,647317194;0,158734828;-0,154834455;-0,104086191;-0,036685354;-0,023773159;-0,01966935;-0,009924872;0,000535536;0,017920576;0,041533427;0,076822223;0,145062721;0,254546971;0,386169558;0,400653735;0,109168858;-0,009764233;1;1;0;0;0
0;0,52567185;1;0,5;2;0,603927425;1;0,564226544;2;1,025;0,9;1,041666667;1,018518519;1;0,125;0,016666667;2,6467195;0,9959212;-0,00049982;-0,01799194;0,350676626;0,732918498;0,274336561;-0,114562927;-0,061081691;-0,017670728;-0,014761763;-0,009460788;-0,000571232;0,003570207;0,024272714;0,051365885;0,093409397;0,159569968;0,270502471;0,400174087;0,457761027;0,237104329;0,007354518;1;1;0;0;0
0;0,526364414;1;0,5;2;0,610059752;1;0,566274394;2;1,041666667;1,025;0,986111111;1,018518519;1;0,016666667;-0,055555556;1,920623228;0,995544994;0,00249915;-0,016974742;0,322152828;0,731950357;0,29001008;-0,111725689;-0,057986616;-0,016367985;-0,014154963;-0,01706398;-0,01267359;-0,002213529;0,021703512;0,050440032;0,101330817;0,194151367;0,323543992;0,450107837;0,408179129;0,120302105;-0,00587294;1;1;0;0;0
0;0,52567185;1;0,5;2;0,615754748;0;0,573763326;2;0,986111111;1,041666667;1,002777778;1,018518519;1;-0,055555556;0,016666667;1,800604795;0,993524248;0,0034631;-0,008068511;0,377952404;0,713355148;0,194374676;-0,113364807;-0,063837809;-0,022292312;-0,019473074;-0,013173341;-0,006051445;0,001071064;0,024772239;0,052576477;0,099563718;0,175600731;0,303650936;0,425874;0,453347347;0,196143234;-0,003195333;1;1;0;0;0
0;0,526364414;1;0,5;2;0,615172661;0;0,577156448;2;1,002777778;0,986111111;1,086111111;1,018518519;1;0,016666667;0,083333333;2,189492715;0,998811482;-0,010478202;-0,000499829;0,42164145;0,761594156;0,341374215;-0,113946288;-0,083225172;-0,023398502;-0,017991953;-0,016956907;-0,008925307;-0,001660151;0,015850437;0,038254053;0,075331407;0,13771518;0,238114919;0,363401473;0,477563877;0,333353865;0,028785847;1;1;0;0;0
0;0,52567185;1;0,5;2;0,609799359;1;0,570363245;2;1,086111111;1,002777778;1,066666667;1,018518519;1;0,083333333;-0,019444444;2,188935108;0,997942631;0,001410236;-0,001267429;0,418245053;0,75167451;0,26553184;-0,109962515;-0,061686338;-0,014315594;-0,015100871;-0,014726081;-0,009335845;-0,002427741;0,019062653;0,042745142;0,080228493;0,140096084;0,247186852;0,38196943;0,470922542;0,29357028;0,03709538;1;1;0;0;0
0;0,52567185;1;0,5;2;0,606913164;1;0,569001333;2;1,066666667;1,086111111;1,1;1,018518519;1;-0,019444444;0,033333333;1,799645976;0,997737968;0,00098181;-0,003338141;0,412943423;0,748951838;0,263655904;-0,109803789;-0,05962323;-0,016457217;-0,013458906;-0,015065176;-0,011459896;-0,004784055;0,019062651;0,045524483;0,091568762;0,163811746;0,288276059;0,416121887;0,462881932;0,218011744;0,001017512;1;1;0;0;0
1;0,568319983;2;0,515273025;0;0,64441448;0;0,582570206;2;1,138888889;0,986111111;1,027777778;1,033680556;1;0,152777778;-0,111111111;2,297591027;0,999302871;-0,082279489;-0,092547298;-0,058668608;0,009417315;-0,162849336;-0,570041043;-0,514639978;-0,294993767;-0,598634368;-0,274670336;-0,033382881;-0,007620671;0,021434141;0,035672594;0,108370759;0,143488643;0,242645899;0,322623363;0,317284322;0,211623045;-0,000185872;1;1;0;0;0
1;0,550521448;2;0,523593576;0;0,617287504;0;0,571724093;2;1,027777778;1,138888889;1,022222222;1,033680556;1;-0,111111111;-0,005555556;1,473094549;0,999730955;-0,089475068;-0,034187416;-0,359409961;-0,669542397;-0,351398526;-0,479190594;-0,52351152;-0,181126796;-0,086278143;-0,040127142;0,000495662;0,040127139;0,026264094;0,079140223;0,128407384;0,189980773;0,241946061;0,255431024;0,225781406;0,053727641;-0,017346463;1;1;0;0;0
1;0,558755072;2;0,524979187;0;0,621134126;0;0,571724093;2;1,022222222;1,027777778;1,127777778;1,033680556;1;-0,005555556;0,105555556;2,056848555;0,99578306;-0,072487256;-0,083571658;-0,034187414;0,054468965;-0,181126791;-0,575660463;-0,395478384;-0,257977524;-0,506808847;-0,172183238;-0,063976934;-0,018399411;0,010780251;0,047547761;0,081110146;0,17992802;0,250791957;0,402199494;0,368011742;0,122308984;-0,001239158;1;1;0;0;0
1;0,566274394;2;0,517354137;0;0,638651772;0;0,553269295;2;1,127777778;1,022222222;0,913888889;1,033680556;1;0,105555556;-0,213888889;1,949390969;0,969103215;-0,075013717;-0,069096661;-0,057371874;0,009974885;-0,179448361;-0,453202833;-0,085540134;-0,394903295;-0,410269782;-0,119073053;-0,073781417;-0,006629395;0,023539639;0,080863939;0,125969161;0,190219648;0,298214669;0,320623599;0,185677195;0,023415792;-0,003035927;1;1;0;0;0
0;0,539500846;2;0,5;2;0,581645646;0;0,548458528;2;0,913888889;1,127777778;1,075;1,033680556;1;-0,213888889;0,161111111;1,457818719;0,713605894;-0,535637247;-0,14809734;-0,027192797;0,003159846;0,032330744;0,073966284;0,069035006;0,086770103;0,124749489;0,147370083;0,149309105;0,15076262;0,186155736;0,236338292;0,275014008;0,340271027;0,394484848;0,36758314;0,230949352;0,060891125;-0,001425031;1;1;0;0;0
0;0,551208705;2;0,5;2;0,607167347;1;0,558070106;2;1,075;0,913888889;0,977777778;1,033680556;1;0,161111111;-0,097222222;2,537102251;0,999989768;-0,130600484;-0,086770107;-0,426218374;-0,761594156;-0,537754603;-0,534576056;-0,441906345;-0,101017362;-0,022672709;-0,004089216;0,005390281;0,020133586;-0,011895349;0,051874075;0,124505488;0,201658687;0,301823036;0,300696341;0,256588953;0,129869562;0,019080695;1;1;0;0;0
1;0,557384918;2;0,52567185;0;0,642411214;0;0,569682421;2;1,080555556;1,052777778;0,777777778;1,075694444;1;0,027777778;-0,302777778;1,602312171;0,747070412;-0,041409531;-0,028168441;-0,009771672;0,02657355;-0,121610108;-0,314329185;-0,085264779;-0,155662242;-0,228376135;-0,054636092;-0,019899654;0,000749187;0,005993412;0,028135891;0,044530788;0,095215566;0,151527614;0,228468749;0,245928833;0,136855722;0,03711649;1;1;0;0;0
1;0,558070106;2;0,52567185;0;0,600598301;1;0,566274394;2;0,777777778;1,080555556;1,436111111;1,075694444;1;-0,302777778;0,658333333;1,828332241;0,802507436;-0,04531097;-0,007947714;-0,12315021;-0,34968202;-0,174735552;-0,263594529;-0,127638759;-0,02165785;-0,006742569;0,009804247;0,017718016;0,021104359;0,034253697;0,070242438;0,089531605;0,134937423;0,201503963;0,231430438;0,165372761;0,053759196;-0,004918527;1;1;0;0;0
1;0,527749235;1;0,524979187;0;0,602230974;1;0,560124332;2;1,436111111;0,777777778;1,105555556;1,075694444;2;0,658333333;-0,330555556;4,952176347;0,999992996;-0,024490211;0,009641394;0,229703304;0,469107251;0,076203771;-0,639385456;-0,756402329;-0,614320045;-0,447703278;-0,298984371;-0,143114959;-0,030088638;-0,003517896;0,05258988;0,122636914;0,221417872;0,315854833;0,334959291;0,262381715;0,182429924;0,109140086;1;1;0;0;0
1;0,558070106;2;0,52567185;0;0,631190585;0;0,575121427;2;1,105555556;1,436111111;1,058333333;1,075694444;1;-0,330555556;-0,047222222;0,514592357;0,740225105;-0,016675978;-0,02097412;-0,009478541;0,023839134;-0,108625078;-0,295301914;-0,077887525;-0,146654686;-0,249780927;-0,071960092;-0,027940609;-0,004625373;0,0049511;0,005374538;0,026443341;0,07892346;0,116086651;0,156234296;0,134169813;0,066092433;0,005863123;1;1;0;0;0
1;0,550521448;2;0,533284038;1;0,614498965;0;0,564226544;2;1,058333333;1,105555556;1,05;1,075694444;1;-0,047222222;-0,008333333;1,658616953;0,85700589;-0,032301463;-0,004299649;-0,182429922;-0,387725677;-0,154994707;-0,207870489;-0,258616719;-0,073223766;-0,028005711;-0,001465803;0,007817427;0,002117262;-0,001433217;0,026964152;0,050900604;0,085782147;0,131481941;0,151400319;0,140944665;0,071279571;0,008338575;1;1;0;0;0
1;0,558070106;2;0,52567185;0;0,623763712;0;0,571724093;2;1,05;1,058333333;1,044444444;1,075694444;1;-0,008333333;-0,005555556;1,848529139;0,792679607;-0,035489978;-0,036596027;-0,02865665;0,008338561;-0,106564539;-0,340499996;-0,165626216;-0,21079821;-0,213131439;-0,034091015;-0,011530432;0,000488598;0,017848264;0,03373312;0,062589084;0,117371828;0,175872149;0,219186408;0,175619611;0,053889107;-0,005179109;1;1;0;0;0
1;0,52567185;1;0,54019088;1;0,618219163;0;0,57783421;2;0,922222222;0,988888889;1,005555556;1,00154321;1;-0,066666667;0,083333333;1,953114657;0,992978168;-0,012562629;0,031196728;0,322670251;0,703605496;0,254378767;-0,19355296;0,009436564;-0,012888657;-0,009494111;-0,008515977;-0,000786404;-0,00391282;0,00130428;0,006598031;0,013732445;0,02653972;0,051052705;0,060842358;0,060326379;0,005888374;-0,017701862;1;1;0;0;0
1;0,524979187;1;0,54088076;1;0,607224322;1;0,572404111;2;1,005555556;0,922222222;1,161111111;1,00154321;1;0,083333333;0,155555556;2,682068381;0,999151267;0,001074115;0,06924607;0,426112105;0,761594156;0,365441457;-0,223200255;-0,015170688;-0,006348678;-0,013022885;-0,008189942;-0,011201008;-0,002685278;0,00138101;0,010587305;0,019715106;0,039414893;0,061300973;0,082061483;0,079393698;0,006770651;-0,026079693;1;1;0;0;0
1;0,524979187;1;0,54088076;1;0,617980807;0;0,575121427;2;1,161111111;1,005555556;0,963888889;1,00154321;1;0,155555556;-0,197222222;2,137070121;0,99900062;0,009359849;0,08952489;0,473816319;0,75945121;0,23260148;-0,239700961;-0,014691293;-0,006291166;-0,006502136;-0,007978959;-0,002761999;-0,002071503;0,000690501;0,00168789;0,012811938;0,026616386;0,048297509;0,060230821;0,073368002;0,030296075;-0,01169964;1;1;0;0;0
1;0,524286429;1;0,54088076;1;0,59991135;1;0,558755072;2;0,963888889;1,161111111;0,975;1,00154321;1;-0,197222222;0,011111111;1,298918981;0,99126655;0,00163035;0,057841608;0,365956538;0,696445784;0,155510159;-0,169515436;0,020271116;-0,012006487;-0,006828185;-0,005063632;-0,003605935;0,004910191;0,00099739;0,00460331;0,005830834;0,018027812;0,027689711;0,033898314;0,043780492;0,04577128;0,038802049;1;1;0;0;0
1;0,524979187;1;0,54088076;1;0,630149563;0;0,514579199;0;0,975;0,963888889;1,033333333;1,00154321;1;0,011111111;0,058333333;2,187939299;0,99847545;-0,001745431;0,0511101;0,393627025;0,749874223;0,334748353;-0,216976506;-0,00301134;-0,010146187;-0,008592698;-0,003068884;-0,009359853;0,000767228;-0,026884735;-0,025581353;-0,026980568;-0,029050445;-0,02903128;-0,024469574;-0,017644335;-0,010625665;-0,006693941;1;1;0;0;0
1;0,524286429;1;0,54088076;1;0,630521223;0;0,512497396;0;1,033333333;0,975;1,016666667;1,00154321;1;0,058333333;-0,016666667;2,191866443;0,998212079;0,004986914;0,077620893;0,464316652;0,747099127;0,158428605;-0,213098257;0,003375772;-0,010127019;-0,005984277;-0,005888372;-0,003740197;0,001764612;-0,030526045;-0,036580273;-0,039568109;-0,038265801;-0,035737425;-0,034128219;-0,034664641;-0,034894531;-0,032748764;1;1;0;0;0
1;0,524286429;1;0,54088076;1;0,619647843;0;0,576478395;2;1,016666667;1,033333333;0,947222222;1,00154321;1;-0,016666667;-0,069444444;1,805983549;0,995226122;-0,006156893;0,056579838;0,405329647;0,718240486;0,137567799;-0,205707467;0,001841336;-0,013118777;-0,006885724;-0,009877683;-0,008362544;-0,001745432;0,010127018;0,012658527;0,028762979;0,045847847;0,071002011;0,082975888;0,086555929;0,04877591;-0,007710447;1;1;0;0;0
1;0,524979187;1;0,54088076;1;0,619647843;0;0,572404111;2;1;0,972222222;0,947222222;0,962037037;1;0,027777778;-0,052777778;2,057326163;0,998995304;-0,004259307;0,062821067;0,409542049;0,760985478;0,363621847;-0,200136302;-0,01273537;-0,003000425;-0,004616002;-0,005811954;0,000335701;-0,002098199;0,004364215;0,008308655;0,014770208;0,036576202;0,059769191;0,084314655;0,089499685;0,015252688;-0,004532071;1;1;0;0;0
1;0,524979187;1;0,54088076;1;0,622297022;0;0,571724093;2;0,947222222;1;0,894444444;0,962037037;1;-0,052777778;-0,052777778;1,789098628;0,997040453;0,005728012;0,069484991;0,403042762;0,732273996;0,235844528;-0,208901707;-0,012840242;-0,012651429;-0,003357093;-0,005455246;0,00142678;-0,001510693;0,002937481;0,009399651;0,023747122;0,040263594;0,068545309;0,079229328;0,087063965;0,011791328;-0,005769972;1;1;0;0;0
1;0,524286429;1;0,54088076;1;0,622733105;0;0,57783421;2;0,894444444;0,947222222;0,919444444;0,962037037;1;-0,052777778;0,025;1,973000139;0,995178116;0,022509831;0,082543607;0,43909401;0,711037061;0,131895995;-0,168560452;0,000335696;-0,008497505;-0,013595489;-0,010050024;-0,005623104;-0,005287401;0,011161926;0,013008066;0,012420667;0,040095988;0,063949535;0,076643353;0,072971196;0,004595014;-0,028800261;1;1;0;0;0
1;0,524979187;1;0,54088076;1;0,617906148;0;0,577156448;2;0,919444444;0,894444444;1,011111111;0,962037037;1;0,025;0,091666667;2,433764215;0,998350705;0,004532072;0,069380592;0,437093322;0,748656347;0,263757601;-0,200136284;-0,012567532;-0,002664727;-0,010259843;-0,010050035;-0,002853544;-0,002266059;0,000587488;0,016364449;0,027689086;0,048890896;0,072303307;0,105688575;0,112157258;0,072303307;-0,009840243;1;1;0;0;0
1;0,524286429;1;0,541570483;1;0,617615755;0;0,570363245;2;1,011111111;0,919444444;0,913888889;0,962037037;1;0,091666667;-0,097222222;2,28713668;0,998617022;0,007805129;0,095386834;0,466330973;0,750614033;0,233643855;-0,202672789;0,013574485;-0,009126905;-0,011518588;-0,006210573;-0,005707025;0,001594626;-0,000671422;0,008140811;0,020727203;0,037749573;0,066623779;0,074056363;0,083731311;0,049895581;-0,004280292;1;1;0;0;0
1;0,524979187;1;0,54088076;1;0,612669162;0;0,571043803;2;0,913888889;1,011111111;0,975;0,962037037;1;-0,097222222;0,061111111;1,805377493;0,998581422;0,012756332;0,094846227;0,465624648;0,748702448;0,23586435;-0,210566597;0,002874513;-0,010301795;-0,005958827;-0,006798071;-0,002853555;-0,000671438;-0,002517849;0,010070989;0,013679369;0,021985525;0,049225801;0,053662193;0,054917398;0,036911456;-0,004720905;1;1;0;0;0
1;0,524979187;1;0,54088076;1;0,613887799;0;0,570363245;2;0,975;0,913888889;1,025;0,962037037;1;0,061111111;0,05;2,444991528;0,998350691;8,39E-05;0,05755278;0,447623817;0,751574265;0,210907444;-0,208319726;-0,007133748;-0,005958803;-0,013301765;-0,006210573;-0,002685681;-0,000419639;-0,002014263;0,011665432;0,02156611;0,04663002;0,064367459;0,068712373;0,06913002;0,036911463;-0,005539178;1;1;0;0;0
1;0,52567185;1;0,53881066;1;0,661729851;0;0,524979187;0;0,655555556;0,647222222;0,658333333;0,663293651;1;0,008333333;0,002777778;2,423450847;0,99993527;-0,119730777;0,137364384;0,596663007;0,747249445;0,598194752;0,130606896;0,012416095;-0,024255324;-0,063519868;-0,058598062;-0,046809763;-0,056377905;-0,054025229;-0,045225177;-0,040558212;-0,020199263;0,007851289;0,036858609;0,079931455;0,108259173;0,101628444;1;1;0;0;0
1;0,524286429;1;0,541570483;1;0,666171787;0;0,526364414;0;0,658333333;0,655555556;0,608333333;0,663293651;1;0,002777778;-0,05;2,233642985;0,99997204;-0,096540172;0,278717346;0,658206823;0,749461767;0,575925941;0,122968506;0,013231974;-0,04663371;-0,063695571;-0,065979587;-0,050550141;-0,047535925;-0,040910503;-0,044256718;-0,033598572;-0,017730045;-0,004146233;0,027340901;0,066418764;0,093677151;0,110351116;1;1;0;0;0
1;0,523593576;1;0,542260047;1;0,659741025;0;0,530517575;1;0,608333333;0,658333333;0,655555556;0,663293651;1;-0,05;0,047222222;2,209477926;0,99997298;-0,082210056;0,293519069;0,661494129;0,755090765;0,556448584;0,119491648;0,049362164;-0,033179996;-0,068065375;-0,062179811;-0,060004557;-0,056487799;-0,039589372;-0,029720853;-0,001587931;0,038356192;0,094813812;0,108607898;0,105991822;0,080106764;0,045665367;1;1;0;0;0
1;0,524286429;1;0,538120326;1;0,661146906;0;0,527749235;0;0,655555556;0,608333333;0,65;0,663293651;1;0,047222222;-0,005555556;2,667532902;0,999947121;-0,10736544;0,212325938;0,624363516;0,750725371;0,570178921;0,114532059;0,036109736;-0,029103858;-0,058004591;-0,059477147;-0,040470141;-0,049604166;-0,028751292;-0,029015726;-0,028486853;-0,0159662;-0,005116641;0,006616276;0,027340877;0,058510112;0,096212414;1;1;0;0;0
1;0,523593576;1;0,54019088;1;0,657884387;0;0,526364414;0;0,65;0,655555556;0,672222222;0,663293651;1;-0,005555556;0,022222222;2,396221964;0,999975515;-0,08185957;0,295694226;0,664115658;0,749229676;0,578514257;0,109218085;0,024078964;-0,035713287;-0,071225856;-0,060553924;-0,061652541;-0,046501627;-0,050770106;-0,03862042;-0,043023986;-0,029632689;-0,002646524;0,018964707;0,062201817;0,105817371;0,114183808;1;1;0;0;0
1;0,52567185;1;0,53881066;1;0,661729851;0;0,524286429;0;0,672222222;0,65;0,658333333;0,663293651;1;0,022222222;-0,013888889;2,456761677;0,999977074;-0,091665556;0,182059397;0,617670469;0,758632954;0,634233623;0,174735477;0,016429222;-0,03747526;-0,068175141;-0,068350764;-0,056223993;-0,054201149;-0,052441799;-0,045225177;-0,040293992;-0,030778512;-0,006263436;0,009350874;0,030778504;0,079668477;0,111396725;1;1;0;0;0
1;0,526364414;1;0,54019088;1;0,660927995;0;0,524979187;0;0,658333333;0,672222222;0,672222222;0,663293651;1;-0,013888889;0,013888889;2,318828859;0,999977246;-0,091140665;0,133770608;0,602328377;0,757488492;0,64835913;0,220272491;0,024167143;-0,01922924;-0,070457788;-0,074340983;-0,065408639;-0,068614146;-0,056927509;-0,048658136;-0,045753416;-0,029280163;-0,002999433;0,012790958;0,050154147;0,097785398;0,120882743;1;1;0;0;0
1;0,524979187;1;0,53881066;1;0,66033555;0;0,52567185;0;0,672222222;0,658333333;0,663888889;0,663293651;1;0,013888889;-0,008333333;2,420028815;0,99997061;-0,092102909;0,198129777;0,627368615;0,759548893;0,600836644;0,161383723;0,04892213;-0,021081096;-0,058861807;-0,06321234;-0,050814133;-0,050066185;-0,053321534;-0,049802179;-0,03985361;-0,036770506;-0,026900135;0,002117231;0,012349943;0,036418095;0,087377499;1;1;0;0;0
1;0,524286429;1;0,54088076;1;0,658039382;0;0,52567185;0;0,663888889;0,672222222;0,677777778;0,663293651;1;-0,008333333;0,013888889;2,350725979;0,999980404;-0,062465442;0,290937154;0,650234352;0,751590316;0,603885981;0,181824815;0,038003824;-0,024784308;-0,07098447;-0,068087336;-0,050506147;-0,063519855;-0,055344562;-0,048658117;-0,04390453;-0,038091916;-0,019581979;0,003087632;0,022227375;0,065189055;0,111048209;1;1;0;0;0
1;0,524979187;1;0,538120326;1;0,658798221;0;0,524286429;0;0,677777778;0,663888889;0,677777778;0,663293651;1;0,013888889;8,88E-16;2,442791539;0,999941033;-0,084049839;0,170520171;0,613919029;0,75506232;0,569061529;0,12016553;0,024541857;-0,043992579;-0,06905317;-0,069579936;-0,051737968;-0,055432494;-0,054553;-0,043992582;-0,031659832;-0,029632721;-0,023197294;-0,00811592;0,003440503;0,027252741;0,072651968;1;1;0;0;0
1;0,524979187;1;0,54019088;1;0,657304236;0;0,523593576;0;0,677777778;0,677777778;0,691666667;0,663293651;1;8,88E-16;0,013888889;2,396850718;0,999982631;-0,080106768;0,224423401;0,630461439;0,755772498;0,638942593;0,201094365;0,040470144;-0,012173542;-0,072388707;-0,069821374;-0,061850303;-0,054553006;-0,049626198;-0,049802193;-0,050066186;-0,033862936;-0,022051048;-0,007674867;0,017906413;0,043200115;0,08369943;1;1;0;0;0
1;0,524979187;1;0,539500846;1;0,656718327;0;0,524979187;0;0,691666667;0,677777778;0,697222222;0,663293651;1;0,013888889;0,005555556;2,452818966;0,99998537;-0,078967153;0,25163421;0,651365878;0,761594156;0,6179432;0,173794506;0,058861772;-0,012526374;-0,063168406;-0,056575773;-0,061059336;-0,054904829;-0,051386051;-0,05464095;-0,041174709;-0,029103855;-0,033510453;-0,029280146;-0,010321189;0,002558326;0,03712289;1;1;0;0;0
1;0,52567185;1;0,539500846;1;0,620868499;0;0,547082318;2;0,683333333;0,680555556;0,630555556;0,668162393;1;0,002777778;-0,052777778;2,225878087;0,99992735;-0,10546044;0,144716118;0,59288306;0,735281982;0,608966106;0,167158286;0,024981078;-0,017134197;-0,056643832;-0,051193994;-0,036408199;-0,039210919;-0,017197503;0,007639231;0,029051027;0,039990516;0,039063423;0,041928757;0,025993432;0,015277636;0,016459127;1;1;0;0;0
1;0,523593576;1;0,542260047;1;0,658189339;0;0,527749235;0;0,630555556;0,683333333;0,669444444;0,668162393;1;-0,052777778;0,038888889;2,171564331;0,999978006;-0,097314784;0,286926516;0,664887739;0,751726483;0,581964811;0,129517865;0,03645033;-0,029029949;-0,058431652;-0,050604585;-0,052204194;-0,04597269;-0,032318935;-0,020551681;-0,015952711;-0,007681415;0,016459115;0,057001427;0,093069661;0,106190763;0,098129957;1;1;0;0;0
1;0,524979187;1;0,538120326;1;0,659407835;0;0,524286429;0;0,669444444;0,630555556;0,672222222;0,668162393;1;0,038888889;0,002777778;2,625098778;0,999043728;-0,094554844;0,080188726;0,519485002;0,695692286;0,500230709;0,06454945;0,024749076;-0,045088236;-0,046225445;-0,027026733;-0,043445414;-0,034869578;-0,011479669;-0,022028239;-0,018315575;0,005064765;0,009791632;0,025318542;0,055570951;0,079601638;0,105710879;1;1;0;0;0
1;0,52567185;1;0,541570483;1;0,661413897;0;0,52567185;0;0,672222222;0,669444444;0,661111111;0,668162393;1;0,002777778;-0,011111111;2,343343864;0,999681868;-0,083794102;0,17346954;0,570177827;0,690406308;0,567007525;0,144654108;0,041233505;-0,002068134;-0,036028837;-0,029873393;-0,028186548;-0,024221854;-0,026415207;-0,03029508;-0,022618909;-0,012745751;-0,014264902;-0,00084416;0,020762622;0,032065962;0,066419581;1;1;0;0;0
1;0,52567185;1;0,53881066;1;0,662367359;0;0,527056877;0;0,661111111;0,672222222;0,652777778;0,668162393;1;-0,011111111;-0,008333333;2,271235035;0,999867864;-0,091249243;0,173223939;0,583414387;0,717698645;0,59438639;0,145418566;0,004642726;-0,031454569;-0,055213229;-0,058095104;-0,045551501;-0,040243274;-0,049425771;-0,045130335;-0,029367325;-0,006499731;0,002279146;0,020762648;0,050352013;0,087481033;0,118962967;1;1;0;0;0
1;0,524286429;1;0,542260047;1;0,659570479;0;0,527749235;0;0,652777778;0,661111111;0,663888889;0,668162393;1;-0,008333333;0,011111111;2,345120543;0,999934162;-0,067133944;0,258921123;0,639590885;0,736993108;0,547542732;0,104291648;0,045383049;-0,027975656;-0,045825333;-0,027111084;-0,041296741;-0,031096243;-0,04100177;-0,023378164;-0,009369579;-0,01333648;0,002447971;0,013758466;0,049257368;0,088988647;0,102370898;1;1;0;0;0
1;0,524979187;1;0,54019088;1;0,658496022;0;0,524286429;0;0,663888889;0,652777778;0,680555556;0,668162393;1;0,011111111;0,016666667;2,481248793;0,999343034;-0,085889255;0,131571474;0,555647292;0,69236708;0,510101304;0,08446465;0,025487252;-0,020087618;-0,043698141;-0,035101412;-0,031623251;-0,043066242;-0,043613911;-0,036956104;-0,031981646;-0,032487616;-0,003545345;0,011057661;0,035480816;0,075595176;0,0882977;1;1;0;0;0
1;0,524979187;1;0,54019088;1;0,659407835;0;0,527749235;0;0,680555556;0,663888889;0,672222222;0,668162393;1;0,016666667;-0,008333333;2,43458583;0,999871178;-0,092986012;0,210759619;0,601329071;0,713559808;0,578268499;0,149196641;0,046899276;0,017049807;-0,0253185;-0,032740563;-0,010635646;-0,017556108;-0,055655102;-0,055087061;-0,03670322;-0,031770868;-0,035986685;-0,022977457;-0,008040197;0,003186575;0,025402861;1;1;0;0;0
1;0,524979187;1;0,53881066;1;0,66033555;0;0,526364414;0;0,672222222;0,680555556;0,663888889;0,668162393;1;-0,008333333;-0,008333333;2,285764521;0,999900491;-0,081195135;0,193616344;0,611337272;0,727420103;0,575988438;0,110632929;0,007597001;-0,030379396;-0,069360454;-0,053256472;-0,050436238;-0,044856584;-0,041170349;-0,036028829;-0,0330779;-0,024053106;-0,008356698;0,00202591;0,017471727;0,05641241;0,093111509;1;1;0;0;0
1;0,524286429;1;0,542260047;1;0,660195487;0;0,524979187;0;0,663888889;0,672222222;0,658333333;0,668162393;1;-0,008333333;-0,005555556;2,294905645;0,999875649;-0,071208381;0,259806895;0,625322367;0,72191875;0,532852735;0,069276427;0,009538378;-0,047404622;-0,066083447;-0,058641982;-0,050625682;-0,04015907;-0,049931035;-0,039906236;-0,03290927;-0,023800054;-0,01198613;0,004980316;0,030969679;0,064780595;0,102182916;1;1;0;0;0
1;0,52567185;1;0,53881066;1;0,657467902;0;0,526364414;0;0,658333333;0,663888889;0,697222222;0,668162393;1;-0,005555556;0,038888889;2,443947686;0,999978571;-0,080524247;0,176415372;0,619426867;0,761594156;0,632946867;0,172609717;0,056244105;-0,003376539;-0,058894346;-0,038073044;-0,03349951;-0,038726281;-0,027954534;-0,023125049;-0,020467302;0,00033767;0,015129917;0,031813015;0,077588209;0,110778832;0,099780788;1;1;0;0;0
1;0,52567185;1;0,539500846;1;0,601476164;1;0,537429845;1;0,525;0,527777778;0,561111111;0,535130719;1;-0,002777778;0,036111111;2,4778114;0,996925488;-0,077907328;-0,04999932;0,348192426;0,681769471;0,1717634;-0,450029809;-0,225725927;-0,055506731;-0,007313847;0,031335363;0,074382854;0,13599083;0,215110589;0,311821098;0,379942571;0,411318181;0,389512072;0,313571803;0,177660245;0,074642607;0,008806397;1;1;0;0;0
1;0,526364414;1;0,539500846;1;0,608101936;1;0,54088076;2;0,561111111;0,525;0,547222222;0,535130719;1;0,036111111;-0,013888889;2,588431598;0,996421109;-0,071673284;-0,069445459;0,301408378;0,646615582;0,275098835;-0,447228085;-0,316025931;-0,103590041;-0,03334833;0,002500177;0,044451617;0,088283631;0,157204726;0,257382551;0,359617051;0,399468743;0,393177809;0,3031715;0,163167533;0,06394725;0,004477918;1;1;0;0;0
1;0,52567185;1;0,54019088;1;0,603618565;1;0,537429845;1;0,547222222;0,561111111;0,547222222;0,535130719;1;-0,013888889;4,44E-16;2,263859376;0,98448495;-0,077017116;-0,080985032;0,221826697;0,552198599;0,023281116;-0,499991425;-0,263643584;-0,081541071;-0,039311018;0,008881025;0,060118471;0,116418754;0,177081976;0,275374743;0,34023193;0,374212756;0,373827605;0,317603759;0,192507544;0,088579818;0,031782709;1;1;0;0;0
1;0,524979187;1;0,54088076;1;0,603874908;1;0,538120326;1;0,547222222;0,547222222;0,544444444;0,535130719;1;4,44E-16;-0,002777778;2,350379054;0,987064764;-0,070299548;-0,027606986;0,325499751;0,564932065;0,047691242;-0,475509331;-0,24907085;-0,060230016;-0,029023866;0,013806125;0,056473919;0,115461574;0,183580436;0,257521923;0,327899754;0,377417335;0,408337523;0,373442327;0,220797537;0,106321018;0,022833556;1;1;0;0;0
1;0,524979187;1;0,54088076;1;0,604429461;1;0,536739221;1;0,544444444;0,547222222;0,519444444;0,535130719;1;-0,002777778;-0,025;2,248897286;0,989978205;-0,069296925;-0,028203588;0,346026289;0,61239198;0,02089404;-0,44438762;-0,197066895;-0,063241111;-0,02104324;0,016268438;0,057552571;0,11840605;0,196672314;0,282704167;0,354407476;0,386595968;0,38239845;0,312898707;0,176069697;0,074494175;0,024922072;1;1;0;0;0
1;0,524979187;1;0,541570483;1;0,605350594;1;0,538120326;1;0,519444444;0,544444444;0,519444444;0,535130719;1;-0,025;4,44E-16;2,1759778;0,998741534;-0,063835747;0,006791457;0,465952947;0,696905409;0,179394339;-0,450654516;-0,246373837;-0,055767145;0,001716546;0,025444168;0,050408764;0,121201372;0,184445695;0,276650251;0,33295251;0,404099968;0,428925338;0,36503073;0,230324795;0,096090395;0,011642136;1;1;0;0;0
1;0,524979187;1;0,537429845;1;0,60377742;1;0,536048456;1;0,519444444;0,519444444;0,516666667;0,535130719;1;4,44E-16;-0,002777778;2,34214276;0,995356018;-0,091614913;-0,0636871;0,338746234;0,657193482;0,131666382;-0,459295147;-0,210978377;-0,059114519;0,005112278;0,036106402;0,082022938;0,157823354;0,22203956;0,324632051;0,412929057;0,417376436;0,383544806;0,282017347;0,169408424;0,059783842;0,030552473;1;1;0;0;0
1;0,52567185;1;0,53881066;1;0,605350594;1;0,536739221;1;0,516666667;0,519444444;0,519444444;0,535130719;1;-0,002777778;0,002777778;2,34214276;0,994059624;-0,089912512;-0,086728346;0,274477856;0,630798949;0,11104106;-0,49163318;-0,251099839;-0,076942929;-0,015485;0,029545837;0,075792875;0,137675237;0,201796705;0,308988562;0,386722917;0,410325607;0,396831088;0,304932558;0,166217075;0,060527463;0,011380961;1;1;0;0;0
1;0,524979187;1;0,539500846;1;0,607317228;1;0,537429845;1;0,519444444;0,516666667;0,5;0,535130719;1;0,002777778;-0,019444444;2,297820544;0,987971921;-0,098862517;-0,066251059;0,272993481;0,589754352;0,090060551;-0,477902746;-0,206660018;-0,06316677;-0,012649512;0,026264582;0,070745118;0,143747048;0,219874406;0,300050705;0,388371904;0,40209979;0,373570754;0,314917043;0,183724654;0,023877828;-0,001380716;1;1;0;0;0
1;0,52567185;1;0,536739221;1;0,603122223;1;0,534666513;1;0,5;0,519444444;0,513888889;0,535130719;1;-0,019444444;0,013888889;2,255462585;0,984994583;-0,078649094;-0,069891106;0,211263597;0,591261217;0,102777833;-0,458794459;-0,228910841;-0,072712702;-0,007463112;0,042030596;0,06792271;0,112220299;0,204622951;0,329730252;0,407342034;0,392546683;0,363509603;0,247179851;0,120024638;0,056176342;0,006269032;1;1;0;0;0
1;0,524979187;1;0,537429845;1;0,602319483;1;0,535357553;1;0,513888889;0,5;0,522222222;0,535130719;1;0,013888889;0,008333333;2,497688541;0,994104356;-0,109197871;-0,071487661;0,315219564;0,666586657;0,155602973;-0,417438056;-0,152506383;-0,0377088;-0,033571966;0,026786645;0,049515416;0,128401403;0,232938032;0,328698811;0,375175066;0,37623268;0,335273045;0,215039399;0,090319648;0,003806231;-0,041024811;1;1;0;0;0
1;0,52567185;1;0,537429845;1;0,603100123;1;0,536048456;1;0,522222222;0,513888889;0,533333333;0,535130719;1;0,008333333;0,011111111;2,463974577;0,992942002;-0,071079279;-0,047728472;0,293653509;0,649731516;0,157350299;-0,435842746;-0,199110453;-0,04102481;0,005373478;0,028501861;0,049664296;0,095831571;0,195954736;0,303442554;0,372028513;0,402224913;0,366743707;0,264476712;0,136320434;0,021640015;-0,000932914;1;1;0;0;0
1;0,524979187;1;0,54088076;1;0,598333632;1;0,535357553;1;0,533333333;0,522222222;0,566666667;0,535130719;1;0,011111111;0,033333333;2,579011838;0,986318272;-0,056957467;-0,034019259;0,310607823;0,60097927;-0,05249295;-0,444836702;-0,169770848;-0,042440346;-0,006866076;0,021341633;0,064541842;0,139688149;0,219661331;0,318542902;0,36389815;0,393682449;0,376649052;0,270297608;0,131776388;0,050557643;0,008918341;1;1;0;0;0
1;0,524979187;1;0,54088076;1;0,601794579;1;0,53881066;1;0,566666667;0,533333333;0,577777778;0,535130719;1;0,033333333;0,011111111;2,66503211;0,9923538;-0,073603493;-0,027010369;0,339175613;0,603072918;0,065582276;-0,485040424;-0,247775372;-0,071413422;-0,013880746;0,004030124;0,038938424;0,091540898;0,157932513;0,258218611;0,328432506;0,37805716;0,38824515;0,330561456;0,225194633;0,094204491;0,023728655;1;1;0;0;0
1;0,524979187;1;0,541570483;1;0,605534462;1;0,54088076;2;0,577777778;0,566666667;0,555555556;0,535130719;1;0,011111111;-0,022222222;2,365022874;0,993882905;-0,074345735;-0,002238964;0,374469456;0,610241877;0,111630732;-0,471166027;-0,263956056;-0,100783618;-0,050483205;-0,018208303;0,009701909;0,057589762;0,129098657;0,238471177;0,326833611;0,368421979;0,361694644;0,273891173;0,126345602;0,018357522;-0,025667914;1;1;0;0;0
1;0,52567185;1;0,54088076;1;0,609027589;1;0,54019088;2;0,561111111;0,558333333;0,519444444;0,53251634;1;0,002777778;-0,041666667;2,235390206;0,730673418;-0,048413261;-0,024032255;0,145703639;0,310465585;0,054533362;-0,225046641;-0,123472527;-0,037899409;-0,006808979;0,005857385;0,019620766;0,050410079;0,063623989;0,100548365;0,144531119;0,17256824;0,177721161;0,166129765;0,131220332;0,058867347;0,022572789;1;1;0;0;0
1;0,52567185;1;0,539500846;1;0,604975779;1;0,536048456;1;0,519444444;0,561111111;0,513888889;0,53251634;1;-0,041666667;-0,005555556;2,051724653;0,709127383;-0,044860598;-0,038423681;0,126799528;0,302974252;0,023327131;-0,220446613;-0,092079445;-0,025376843;-0,003396325;0,014158665;0,032114699;0,063983481;0,097737782;0,13832455;0,174318762;0,185083646;0,175686586;0,126121436;0,059521343;0,005512841;-0,000656297;1;1;0;0;0
1;0,52567185;1;0,539500846;1;0,605441957;1;0,535357553;1;0,513888889;0,519444444;0,5;0,53251634;1;-0,005555556;-0,013888889;2,255462585;0,684440892;-0,021736418;-0,031836058;0,131349328;0,281592278;-0,010270688;-0,211922536;-0,068132778;-0,004069019;0,001246965;0,014929651;0,035425217;0,055858314;0,09604743;0,139595707;0,164214589;0,176004586;0,154748519;0,100873185;0,046416054;0,00164074;-0,007481649;1;1;0;0;0
1;0,524979187;1;0,536048456;1;0,603667998;1;0,535357553;1;0,5;0,513888889;0,508333333;0,53251634;1;-0,013888889;0,008333333;2,274114841;0,677355413;-0,036310079;-0,028672324;0,129188045;0,271759104;-0,003150216;-0,2081114;-0,074009598;-0,015930264;0,005512841;0,011271425;0,04029123;0,075070158;0,110429214;0,155773282;0,166767879;0,168808903;0,134315024;0,08970375;0,038653045;-0,010352717;-0,009417588;1;1;0;0;0
1;0,52567185;1;0,536739221;1;0,601277751;1;0,534666513;1;0,508333333;0,5;0,533333333;0,53251634;1;0,008333333;0,025;2,522324918;0,700859464;-0,039291959;-0,035212186;0,117651726;0,290570694;-0,022474395;-0,228081852;-0,087359596;-0,037457036;-0,010631614;0,018964715;0,045384565;0,081804708;0,110461627;0,154428213;0,183181511;0,179690705;0,149683913;0,093380751;0,047087288;0,013846983;-0,008482437;1;1;0;0;0
1;0,52567185;1;0,538120326;1;0,615645065;0;0,537429845;1;0,533333333;0,508333333;0,436111111;0,53251634;1;0,025;-0,097222222;2,177455985;0,687477026;-0,035195799;-0,027442737;0,115126839;0,27611466;0,002920513;-0,223535185;-0,093575922;-0,026049104;-0,005562062;0,010172257;0,037211269;0,064555371;0,093153045;0,144225876;0,169191435;0,179754216;0,167979911;0,125152529;0,07715814;0,020276803;0,004922188;1;1;0;0;0
1;0,526364414;1;0,539500846;1;0,726211993;0;0,541570483;2;0,436111111;0,533333333;0,308333333;0,53251634;1;-0,097222222;-0,127777778;1,301572175;0,714181581;-0,042895494;-0,0367361;0,113572323;0,293287346;0,063182771;-0,231469819;-0,118751838;-0,042731722;-0,027508318;-0,019161532;0,007219143;0,024671766;-0,034441975;-0,000262519;0,107089266;0,2840226;0,630634547;0,754390752;0,253766314;-0,242186818;-0,258671995;1;1;0;0;0
0;0,521514485;1;0,5;2;0,598749895;1;0,549146357;2;0,308333333;0,436111111;0,930555556;0,53251634;1;-0,127777778;0,622222222;5,273902129;0,999984903;0,216133953;0,427512144;0,669591341;0,761594156;0,569587562;0,045319072;-0,242186818;-0,277129841;-0,220946071;-0,189390001;-0,183625468;-0,186097554;-0,061156115;0,000590662;0,057624609;0,093510862;0,312717374;0,653050872;0,458742659;0,003937764;-0,11952822;1;1;0;0;0
0;0,52567185;1;0,5;2;0,611056171;0;0,544327758;2;0,930555556;0,308333333;0,544444444;0,53251634;2;0,622222222;-0,386111111;12,46239227;0,999587209;0,14094681;0,312717374;0,556952635;0,673877178;0,525523496;0,171421848;-0,021359223;-0,099557532;-0,148143733;-0,16708689;-0,115580137;-0,078136651;-0,046694382;-0,006169118;0,057820842;0,086350011;0,085242519;0,073226313;0,049329884;0,026540988;0,008925403;1;1;0;0;0
1;0,526364414;1;0,54019088;1;0,613792081;0;0,545705388;2;0,544444444;0,930555556;0,552777778;0,53251634;1;-0,386111111;0,008333333;0,977355994;0,720206785;6,56E-05;0,007629307;0,155965389;0,314078605;0,065241581;-0,196656183;-0,114463002;-0,044795096;-0,019555161;-0,005512841;0,011681557;0,031360718;0,057624612;0,087327036;0,10325995;0,109748453;0,094031286;0,080940873;0,047742111;0,030246071;0,002100148;1;1;0;0;0
1;0,526364414;1;0,53881066;1;0,610360594;1;0,541570483;2;0,552777778;0,544444444;0,533333333;0,53251634;1;0,008333333;-0,019444444;2,350194558;0,680783322;-0,051441067;-0,057690024;0,073960648;0,251323921;0,021490425;-0,232028763;-0,126977101;-0,035998744;-0,014585168;-0,001558703;0,017390122;0,040487797;0,076097918;0,118282708;0,142538515;0,161754968;0,150469769;0,117441372;0,058147887;0,012468996;-0,008728533;1;1;0;0;0
1;0,524979187;1;0,54019088;1;0,606270979;1;0,538120326;1;0,533333333;0,552777778;0,519444444;0,53251634;1;-0,019444444;-0,013888889;2,171344008;0,713977445;-0,034163374;-0,028557569;0,136586024;0,300707541;0,042502438;-0,22294278;-0,106440453;-0,027836214;-0,000278924;0,013026762;0,031688538;0,061303223;0,089947876;0,125217132;0,154476261;0,166895484;0,161403427;0,133154819;0,078462787;0,032606406;0,002887699;1;1;0;0;0
1;0,52567185;1;0,538120326;1;0,615234359;0;0,538120326;1;0,519444444;0,533333333;0,447222222;0,53251634;1;-0,013888889;-0,072222222;1,995724576;0,688006268;-0,035294123;-0,042698968;0,107008169;0,276235907;0,019309143;-0,222178638;-0,103763132;-0,03168854;-0,003904947;0,017406526;0,038243465;0,062414661;0,08524252;0,119981038;0,149363101;0,167405853;0,16823501;0,140496502;0,086219731;0,034704178;0,006005049;1;1;0;0;0
1;0,52567185;1;0,536048456;1;0,70802255;0;0,533975341;1;0,447222222;0,519444444;0,377777778;0,53251634;1;-0,072222222;-0,069444444;1,587601411;0,667380753;-0,050491906;-0,053617235;0,080680067;0,245720503;-0,020375203;-0,22755295;-0,091558832;-0,024015855;-0,009581643;0,014634385;0,031754106;0,052226509;-0,015388957;-0,003379919;0,041454211;0,178801411;0,422376327;0,564556259;0,576639117;0,564422115;0,37557162;1;1;0;0;0
0;0,527056877;1;0,5;2;0,633643976;0;0,54294945;2;0,377777778;0,447222222;0,708333333;0,53251634;1;-0,069444444;0,330555556;3,537082486;0,999748155;0,107137923;0,323658943;0,528048461;0,579828192;0,571446811;0,496260779;0,111984844;-0,126767242;-0,168681378;-0,188630579;-0,212940897;-0,215570799;0,033589772;0,045450061;0,113248397;0,319819902;0,543280185;0,649640693;0,319407427;0,002231402;-0,091786608;1;1;0;0;0
0;0,527056877;1;0,5;2;0,628632483;0;0,554642009;2;0,697222222;0,697222222;0,677777778;0,686324786;1;-1,11E-16;-0,019444444;2,29752064;0,999969772;0,16370742;0,415566852;0,613747303;0,689742478;0,582256977;0,312202428;-0,050907306;-0,261588718;-0,292747208;-0,246470882;-0,180008899;-0,127712127;-0,133346476;-0,093350529;-0,023560647;0,031714537;0,090587694;0,125890913;0,116909809;0,093883198;0,094632791;2;0;1;0;0
0;0,526364414;1;0,5;2;0,624138252;0;0,550521448;2;0,677777778;0,697222222;0,675;0,686324786;1;-0,019444444;-0,002777778;2,237296132;0,999960369;0,116340473;0,375553589;0,604635523;0,689700732;0,572224394;0,264256607;-0,122853699;-0,292237613;-0,292601634;-0,22949824;-0,171290417;-0,133346474;-0,153540828;-0,109148655;-0,037916692;0,042129342;0,105528727;0,144413622;0,147744387;0,132857724;0,133287833;2;0;1;0;0
0;0,527749235;1;0,5;2;0,625084477;0;0,549833997;2;0,675;0,677777778;0,655555556;0,686324786;1;-0,002777778;-0,019444444;2,286443942;0,999984706;0,069032615;0,336968486;0,594848544;0,712050178;0,617159754;0,301601978;-0,115397958;-0,302759442;-0,299646728;-0,231985534;-0,165256568;-0,126850579;-0,142093777;-0,103442045;-0,038910357;0,034378621;0,099403946;0,137019838;0,132251574;0,114199891;0,11085925;2;0;1;0;0
0;0,527749235;1;0,5;2;0,621801677;0;0,547082318;2;0,655555556;0,675;0,647222222;0,686324786;1;-0,019444444;-0,008333333;2,224110643;0,999983013;0,060292207;0,32934252;0,592115303;0,71622421;0,609611888;0,264774905;-0,150196485;-0,314284616;-0,299284361;-0,218837218;-0,156027352;-0,128573459;-0,149184731;-0,087408723;-0,003184449;0,079423952;0,131391058;0,152530114;0,133483314;0,120657619;0,123872898;2;0;1;0;0
0;0,526364414;1;0,5;2;0,617186393;0;0,547082318;2;0,647222222;0,655555556;0,691666667;0,686324786;1;-0,008333333;0,044444444;2,447637636;0,999992791;0,105410632;0,386645357;0,634828259;0,730269704;0,610811113;0,245722982;-0,171213138;-0,316363801;-0,299211887;-0,227913844;-0,169203205;-0,136004175;-0,158201454;-0,098418535;-0,008757044;0,071092343;0,128181967;0,14256177;0,128925775;0,117753844;0,118067863;2;0;1;0;0
0;0,527056877;1;0,5;2;0,618197189;0;0,549146357;2;0,691666667;0,647222222;0,727777778;0,686324786;1;0,044444444;0,036111111;2,757398748;0,999996481;0,119873023;0,407482677;0,651627904;0,742833085;0,609761943;0,244151442;-0,178005322;-0,330406735;-0,307380372;-0,234093598;-0,178313662;-0,146381307;-0,167656153;-0,118067887;-0,044394019;0,049835282;0,106670095;0,137410395;0,12888664;0,107830856;0,110505383;2;0;1;0;0
0;0,527056877;1;0,5;2;0,626248711;0;0,555328055;2;0,727777778;0,691666667;0,713888889;0,686324786;1;0,036111111;-0,013888889;2,516375365;0,999994877;0,195791056;0,458635204;0,651444636;0,71873511;0,611509366;0,338114778;-0,049954401;-0,293911381;-0,326998257;-0,274740242;-0,20385464;-0,153074383;-0,160742419;-0,126360984;-0,063048173;0,008597829;0,078969056;0,125283659;0,11618341;0,096486578;0,085670388;2;0;1;0;0
0;0,527749235;1;0,5;2;0,627636947;0;0,553955755;2;0,713888889;0,727777778;0,688888889;0,686324786;1;-0,013888889;-0,025;2,20245434;0,999982671;0,101236279;0,355309204;0,585248466;0,704111392;0,616271772;0,321441354;-0,082686349;-0,293838656;-0,307884912;-0,253263181;-0,188392055;-0,138191393;-0,148717666;-0,098950683;-0,029527281;0,033603293;0,096111921;0,130041221;0,124891825;0,100270933;0,102890705;2;0;1;0;0
0;0,526364414;1;0,5;2;0,620891366;0;0,550521448;2;0,688888889;0,713888889;0,694444444;0,686324786;1;-0,025;0,005555556;2,226752984;0,999988873;0,124578337;0,397291194;0,631585266;0,716495504;0,595465475;0,270982358;-0,131703994;-0,310333076;-0,314212876;-0,249683499;-0,18208795;-0,142171795;-0,167656137;-0,122304778;-0,046856828;0,044652239;0,107457084;0,137722813;0,137957109;0,111920671;0,10607977;2;0;1;0;0
0;0,526364414;1;0,5;2;0,62597159;0;0,553269295;2;0,694444444;0,688888889;0,672222222;0,686324786;1;0,005555556;-0,022222222;2,3228259;0,999996094;0,128553894;0,41438062;0,648132836;0,738376001;0,62015735;0,282377334;-0,142171785;-0,319798521;-0,311483733;-0,241904161;-0,175537361;-0,138269486;-0,155716635;-0,09650628;-0,005731958;0,077584392;0,126693917;0,142639764;0,13125414;0,106689774;0,109817248;2;0;1;0;0
0;0,527056877;1;0,5;2;0,621040669;0;0,549833997;2;0,672222222;0,694444444;0,683333333;0,686324786;1;-0,022222222;0,011111111;2,260339556;0,9999993;0,129356342;0,417737956;0,656184855;0,761594156;0,673897372;0,360341999;-0,090350825;-0,322226376;-0,324222611;-0,251772481;-0,185549409;-0,145446316;-0,170362942;-0,112883583;-0,027677823;0,057217909;0,110603686;0,125048567;0,119951484;0,09757093;0,094849762;2;0;1;0;0
0;0,527056877;1;0,5;2;0,627199515;0;0,553955755;2;0,716666667;0,697222222;0,702777778;0,699801587;1;0,019444444;-0,013888889;2,419294311;0,99998283;0,110499206;0,374767562;0,606771589;0,696652018;0,60677159;0,33202456;-0,073792355;-0,292540806;-0,312118418;-0,256452364;-0,192495963;-0,143945998;-0,16866529;-0,126433146;-0,04999558;0,025748494;0,101157058;0,138503978;0,133989673;0,116532639;0,120577404;2;0;1;0;0
0;0,526364414;1;0,5;2;0,624330981;0;0,552582631;2;0,702777778;0,716666667;0,7;0,699801587;1;-0,013888889;-0,002777778;2,262019657;0,999987551;0,085054244;0,368660656;0,62163445;0,722875543;0,590771049;0,189781087;-0,22860783;-0,334970945;-0,294585658;-0,223023607;-0,169168497;-0,139560549;-0,162902446;-0,123659382;-0,056524303;0,026390351;0,092146275;0,135474723;0,14751516;0,131506441;0,119147885;2;0;1;0;0
0;0,527056877;1;0,5;2;0,62114801;0;0,551895767;2;0,7;0,702777778;0,738888889;0,699801587;1;-0,002777778;0,038888889;2,439965398;0,999996646;0,119760601;0,410976148;0,653871563;0,738214449;0,616985278;0,287074824;-0,137934919;-0,317494219;-0,307172983;-0,238324397;-0,175200013;-0,140941759;-0,171803846;-0,137182806;-0,065152895;0,017402525;0,086740697;0,131058479;0,136511874;0,127921203;0,126473928;2;0;1;0;0
0;0,527056877;1;0,5;2;0,630012364;0;0,555328055;2;0,738888889;0,7;0,697222222;0,699801587;1;0,038888889;-0,041666667;2,449467069;0,99999955;0,175360673;0,469062645;0,685438392;0,761594156;0,646118128;0,317047009;-0,128654816;-0,348366676;-0,363061528;-0,299497361;-0,22852929;-0,179454383;-0,193373691;-0,153751908;-0,072164242;0,013611793;0,08612376;0,121883965;0,125209671;0,101751737;0,102264322;2;0;1;0;0
0;0,527749235;1;0,5;2;0,630186167;0;0,551895767;2;0,697222222;0,738888889;0,669444444;0,699801587;1;-0,041666667;-0,027777778;2,057833088;0,999989164;0,139966854;0,397019802;0,599282718;0,701019408;0,621786976;0,356929936;-0,021876163;-0,280674146;-0,32899777;-0,294964033;-0,227665064;-0,169329501;-0,157977049;-0,128084235;-0,068845009;-0,004019535;0,057784066;0,105359239;0,117758749;0,103207353;0,09296795;2;0;1;0;0
0;0,528441487;1;0,5;2;0,627778675;0;0,551208705;2;0,669444444;0,697222222;0,661111111;0,699801587;1;-0,027777778;-0,008333333;2,178005942;0,999949321;0,059952053;0,314734183;0,559102507;0,678120233;0,595765778;0,314435485;-0,090173739;-0,29011381;-0,297232367;-0,243398885;-0,18274091;-0,131669324;-0,142241217;-0,107243882;-0,048610757;0,008888377;0,060344293;0,111174542;0,127982336;0,112115755;0,111174546;2;0;1;0;0
0;0,527056877;1;0,5;2;0,621755827;0;0,549146357;2;0,661111111;0,669444444;0,675;0,699801587;1;-0,008333333;0,013888889;2,351432826;0,999949761;0,043979565;0,307623259;0,589204196;0,702323671;0,563417;0,177047061;-0,207929337;-0,310771336;-0,274018477;-0,199429394;-0,145406578;-0,130528993;-0,154641881;-0,107407719;-0,038849984;0,03340792;0,092536593;0,125535965;0,125026113;0,107653481;0,11346584;2;0;1;0;0
0;0,526364414;1;0,5;2;0,622695013;0;0,551208705;2;0,675;0,661111111;0,691666667;0,699801587;1;0,013888889;0,016666667;2,494218427;0,999993044;0,086884635;0,366725493;0,631600419;0,735372999;0,602512791;0,200304622;-0,22357483;-0,342820293;-0,310172218;-0,231041329;-0,168202267;-0,144676372;-0,167960651;-0,125556355;-0,060674589;0,008888382;0,074122056;0,123516558;0,129388301;0,111747479;0,107960656;2;0;1;0;0
0;0,527749235;1;0,5;2;0,61995334;0;0,549833997;2;0,691666667;0,675;0,725;0,699801587;1;0,016666667;0,033333333;2,552928611;0,999994483;0,040339445;0,312997106;0,616009086;0,747718572;0,62513071;0,209039187;-0,228057939;-0,345377538;-0,305445644;-0,223968457;-0,163204962;-0,141753977;-0,167960654;-0,116246496;-0,048755446;0,025665669;0,085342205;0,1243122;0,121312395;0,101915767;0,104703526;2;0;1;0;0
0;0,526364414;1;0,5;2;0,624169106;0;0,553269295;2;0,725;0,691666667;0,711111111;0,699801587;1;0,033333333;-0,013888889;2,500575124;0,999998566;0,124781356;0,429570037;0,667311279;0,754366009;0,626794035;0,265796672;-0,168443858;-0,348657913;-0,342381385;-0,273865155;-0,202769471;-0,161268253;-0,180577068;-0,135027234;-0,053611735;0,026348945;0,094528787;0,119107038;0,109209635;0,0959044;0,091797031;2;0;1;0;0
0;0,527056877;1;0,5;2;0,623551963;0;0,551895767;2;0,711111111;0,725;0,7;0,699801587;1;-0,013888889;-0,011111111;2,238067249;0,999992863;0,188582407;0,446994644;0,639014234;0,709639759;0,609435323;0,353743761;-0,02999266;-0,291934411;-0,328480322;-0,27792331;-0,209673151;-0,158764847;-0,175240171;-0,144574936;-0,08394338;-0,010525052;0,060364939;0,106670368;0,117043559;0,107407722;0,100910962;2;0;1;0;0
0;0,527749235;1;0,5;2;0,624941511;0;0,552582631;2;0,7;0,711111111;0,711111111;0,699801587;1;-0,011111111;0,011111111;2,315027469;0,99999045;0,141916397;0,395937127;0,617805859;0,70898089;0,612189015;0,341942342;-0,042159646;-0,28006325;-0,323295051;-0,275091289;-0,210227713;-0,163204962;-0,18290113;-0,145954127;-0,079394948;-0,002320562;0,075275861;0,118535085;0,125535962;0,11242263;0,108063047;2;0;1;0;0
0;0,527749235;1;0,5;2;0,625781233;0;0,553269295;2;0,722222222;0,691666667;0,719444444;0,722222222;1;0,030555556;-0,002777778;2,516254133;0,999995372;0,058103102;0,337341108;0,617887833;0,738896059;0,637776753;0,268748426;-0,170876696;-0,333779348;-0,318277914;-0,245620037;-0,181196025;-0,144128547;-0,17525932;-0,125038029;-0,063488511;0,013149707;0,079280625;0,108107531;0,091874108;0,071599736;0,077897529;2;0;1;0;0
0;0,526364414;1;0,5;2;0,629893634;0;0,557384918;2;0,719444444;0,722222222;0,725;0,722222222;1;-0,002777778;0,005555556;2,339161892;0,999998695;0,123667859;0,412955411;0,658166738;0,758699062;0,644570628;0,275993556;-0,16334797;-0,346691296;-0,333564262;-0,253865363;-0,188598349;-0,155012876;-0,188326011;-0,148234131;-0,080843755;-0,000242033;0,054162355;0,097071347;0,097970337;0,073265019;0,048650547;2;0;1;0;0
0;0,527056877;1;0,5;2;0,626614551;0;0,555328055;2;0,725;0,719444444;0,727777778;0,722222222;1;0,005555556;0,002777778;2,376978923;0,999995702;0,078478869;0,374412994;0,633400967;0,742609683;0,62364004;0,221748376;-0,207819646;-0,337358982;-0,3052405;-0,22588672;-0,16342649;-0,12622909;-0,159183264;-0,121860111;-0,060434539;0,004860792;0,06605937;0,102981747;0,091214098;0,068789935;0,061660283;2;0;1;0;0
0;0,526364414;1;0,5;2;0,625334364;0;0,557384918;2;0,727777778;0,725;0,752777778;0,722222222;1;0,002777778;0,025;2,417617804;0,999996901;0,102023787;0,400871938;0,655471754;0,746206694;0,614183384;0,222592028;-0,208437104;-0,34199795;-0,305533114;-0,228182289;-0,172520973;-0,148549734;-0,174614094;-0,124402648;-0,046537557;0,020832001;0,086691882;0,116073885;0,115337609;0,08859326;0,067886551;2;0;1;0;0
0;0,527056877;1;0,5;2;0,628919123;0;0,558070106;2;0,752777778;0,727777778;0,763888889;0,722222222;1;0,025;0,011111111;2,495519744;0,999998687;0,097191215;0,390939398;0,65172854;0,757257384;0,646640848;0,280608145;-0,172051284;-0,349173187;-0,332847061;-0,26057059;-0,193495523;-0,146339879;-0,189784641;-0,15678401;-0,079941999;0,004880962;0,077957671;0,117486386;0,117725072;0,097870456;0,077135699;2;0;1;0;0
0;0,527056877;1;0,5;2;0,628329923;0;0,558070106;2;0,763888889;0,752777778;0,752777778;0,722222222;1;0,011111111;-0,011111111;2,348763559;0,999997909;0,052130995;0,349792884;0,631658598;0,754282199;0,651635719;0,270394351;-0,188909564;-0,349031492;-0,329039459;-0,264401651;-0,200164965;-0,15792487;-0,18517252;-0,142785257;-0,077917581;-0,002238801;0,06983371;0,114063753;0,116849829;0,081304607;0,052332142;2;0;1;0;0
0;0,52567185;1;0,5;2;0,633628068;0;0,559439815;2;0,752777778;0,763888889;0,7;0,722222222;1;-0,011111111;-0,052777778;2,139088201;0,999993854;0,142706222;0,429742229;0,641162496;0,727671121;0,6049052;0,236577549;-0,195746547;-0,341499162;-0,314866076;-0,240077922;-0,175572092;-0,135031442;-0,164250863;-0,119793111;-0,042813669;0,034657353;0,085550756;0,104019319;0,095132982;0,063508599;0,066139689;2;0;1;0;0
0;0,527749235;1;0,5;2;0,624685569;0;0,551208705;2;0,7;0,752777778;0,677777778;0,722222222;1;-0,052777778;-0,022222222;2,017927708;0,999988381;0,094033588;0,361859399;0,600126018;0,710054258;0,624477427;0,348818928;-0,047644414;-0,279864722;-0,302311184;-0,242205539;-0,175024704;-0,130038035;-0,159104627;-0,117247692;-0,066139695;-0,003549807;0,067665702;0,116053988;0,119156899;0,095192943;0,078919846;2;0;1;0;0
0;0,526364414;1;0,5;2;0,622936448;0;0,552582631;2;0,677777778;0,7;0,716666667;0,722222222;1;-0,022222222;0,038888889;2,335050522;0,999995956;0,111554745;0,39805808;0,648046921;0,742573486;0,608575559;0,215295082;-0,203338109;-0,341641692;-0,312247236;-0,229940522;-0,163740569;-0,141520497;-0,180961936;-0,133546015;-0,050582047;0,034637207;0,094973084;0,129066325;0,124581357;0,109442891;0,090253934;2;0;1;0;0
0;0,526364414;1;0,5;2;0,625245798;0;0,553269295;2;0,716666667;0,677777778;0,716666667;0,722222222;1;0,038888889;0;2,583001036;0,999997972;0,110558711;0,40795756;0,667316453;0,757498186;0,610401045;0,191086987;-0,226728721;-0,34569718;-0,313338999;-0,239545659;-0,177369895;-0,146418824;-0,189512433;-0,128709308;-0,049254182;0,030426262;0,095692585;0,130672494;0,106891412;0,081204419;0,086972125;2;0;1;0;0
0;0,530517575;2;0,5;2;0,606584002;1;0,553955755;2;0,9;0,872222222;0,841666667;0,858080808;1;0,027777778;-0,058333333;2,203301842;0,999642643;0,343552524;0,269660531;0,439166894;0,682133479;0,52751341;0,107161831;-0,215189003;-0,192415634;-0,095331737;-0,068154545;-0,052227778;-0,044182047;0,002880176;0,033865215;0,113705444;0,205968322;0,299042506;0,352570029;0,23840995;0,081472243;0,027067122;2;0;1;0;0
0;0,530517575;2;0,5;2;0,604859102;1;0,549146357;2;0,841666667;0,9;0,858333333;0,858080808;1;-0,058333333;0,016666667;1,997239495;0,999271337;0,32026399;0,198094885;0,416581368;0,663376079;0,493232111;0,044469496;-0,261495628;-0,233344086;-0,137339436;-0,106165233;-0,092334175;-0,08064963;-0,016991446;0,039186437;0,134936647;0,239971309;0,319003354;0,358451531;0,243835388;0,106592371;0,03641822;2;0;1;0;0
0;0,531209373;2;0,5;2;0,604024005;1;0,54294945;2;0,858333333;0,841666667;0,836111111;0,858080808;1;0,016666667;-0,022222222;2,266455388;0,999998402;0,499850732;0,42946898;0,601590795;0,753556725;0,622525859;0,242073776;-0,119813406;-0,132709132;-0,113812049;-0,130055572;-0,131506414;-0,127612644;-0,01954676;0,008820335;0,031024033;0,119103634;0,235827624;0,250595764;0,130444878;0,020590414;-0,012816116;2;0;1;0;0
0;0,529825659;1;0,5;2;0,600627503;1;0,543638687;2;0,836111111;0,858333333;0,844444444;0,858080808;1;-0,022222222;0,008333333;2,155379669;0,999993377;0,399538026;0,415747896;0,594607659;0,761594156;0,590026924;0,10231924;-0,190334616;-0,126762567;-0,095331741;-0,096045194;-0,090763355;-0,090049195;-0,034979955;0,029369439;0,10331666;0,19116723;0,300451508;0,319488344;0,203898901;0,101179097;0,053089444;2;0;1;0;0
0;0,529825659;1;0,5;2;0,59957311;1;0,547082318;2;0,844444444;0,836111111;0,825;0,858080808;1;0,008333333;-0,019444444;2,244467288;0,99992599;0,309887091;0,346248683;0,51418648;0,734337036;0,545560925;0,008208336;-0,240581934;-0,14725116;-0,11157272;-0,102604244;-0,084189647;-0,077179166;-0,029045693;0,027103095;0,1187132;0,223482351;0,314566013;0,339640972;0,197022372;0,078968299;0,050971054;2;0;1;0;0
1;0,529825659;1;0,533284038;1;0,591756412;1;0,54294945;2;0,825;0,844444444;0,888888889;0,858080808;1;-0,019444444;0,063888889;2,291989308;0,999923758;0,379505293;0,34447304;0,528655749;0,730330594;0,511107779;0,007488344;-0,208035894;-0,127895947;-0,100466358;-0,100894005;-0,077035995;-0,062131837;-0,0099363;0,013572037;0,078360042;0,174882978;0,27339549;0,306107003;0,156536391;0,034368656;-0,009612319;2;0;1;0;0
0;0,529825659;1;0,5;2;0,601439338;1;0,547770514;2;0,888888889;0,825;0,880555556;0,858080808;1;0,063888889;-0,008333333;2,514963078;0,999945548;0,39635643;0,340277804;0,566083866;0,71485032;0,52250632;0,091977208;-0,193732723;-0,157414273;-0,10531084;-0,106094043;-0,098612803;-0,090906171;-0,014615897;0,028865825;0,110292575;0,192276947;0,287195457;0,329409643;0,195741662;0,072453458;0,024908438;2;0;1;0;0
0;0,531209373;2;0,5;2;0,606926654;1;0,548458528;2;0,880555556;0,888888889;0,836111111;0,858080808;1;-0,008333333;-0,044444444;2,077118242;0,999967271;0,355592931;0,317288369;0,528863239;0,730934796;0,584081135;0,16579406;-0,218482716;-0,216012894;-0,130303307;-0,111359376;-0,098577144;-0,085226214;-0,013392057;0,036705848;0,110434831;0,206830032;0,297336851;0,340182307;0,210927376;0,089834918;0,039006688;2;0;1;0;0
0;0,531209373;2;0,5;2;0,605741575;1;0,547770514;2;0,836111111;0,880555556;0,855555556;0,858080808;1;-0,044444444;0,019444444;2,070701182;0,999771801;0,341168849;0,305845958;0,457005423;0,693738319;0,506197309;0,015119818;-0,280442645;-0,225601945;-0,138222402;-0,123750381;-0,117541705;-0,109438956;-0,031419663;0,054453573;0,159835916;0,251135539;0,344377848;0,347515505;0,198544517;0,067724519;0,018287134;2;0;1;0;0
0;0,530517575;2;0,5;2;0,601270537;1;0,546393941;2;0,872222222;0,863888889;0,858333333;0,8675;1;0,008333333;-0,013888889;2,223510976;0,992429558;0,310641529;0,190488626;0,302262087;0,583749905;0,378339272;-0,078522077;-0,263071751;-0,185369808;-0,100328401;-0,078070042;-0,063740035;-0,046358502;0,007618106;0,013302733;0,029176072;0,124875388;0,214910641;0,283656476;0,239781387;0,100928685;0,010763685;2;0;1;0;0
1;0,530517575;2;0,533975341;1;0,597411911;1;0,547770514;2;0,858333333;0,872222222;0,85;0,8675;1;-0,013888889;-0,008333333;2,140525242;0,999478575;0,334680349;0,308585427;0,43388725;0,681964545;0,485047257;-0,017433044;-0,239209743;-0,153714275;-0,101678938;-0,087405262;-0,080179252;-0,061625874;-0,023532648;0,040646184;0,12979729;0,23133296;0,322509243;0,365274748;0,210278494;0,068721107;0,025464477;2;0;1;0;0
0;0,529133629;1;0,5;2;0,596019971;1;0,548458528;2;0,85;0,858333333;0,888888889;0,8675;1;-0,008333333;0,038888889;2,268278712;0,999741718;0,365143363;0,312284332;0,492202604;0,699944768;0,46853122;-0,040305627;-0,230902432;-0,135605821;-0,072793997;-0,058151425;-0,049383694;-0,040911056;0,001099149;0,032243213;0,119050679;0,216211697;0,315700819;0,368030489;0,231476442;0,084094429;0,029857706;2;0;1;0;0
0;0,529825659;1;0,5;2;0,602015302;1;0,554642009;2;0,888888889;0,85;0,908333333;0,8675;1;0,038888889;0,019444444;2,428573522;0,998647319;0,333602912;0,190780829;0,423368431;0,650842318;0,43894991;-0,029971313;-0,247909091;-0,171131452;-0,084546019;-0,056942581;-0,042575824;-0,025767491;0,007504408;0,048324974;0,128753774;0,236492168;0,326307483;0,396634079;0,284527546;0,114265289;0,036066824;2;0;1;0;0
0;0,530517575;2;0,5;2;0,604306263;1;0,553955755;2;0,908333333;0,888888889;0,855555556;0,8675;1;0,019444444;-0,052777778;2,161496885;0,999891908;0,355513127;0,278944637;0,477826377;0,714491881;0,559461994;0,104528847;-0,224001804;-0,195597117;-0,116060444;-0,095673726;-0,07912473;-0,071436629;-0,025161455;0,038943304;0,113068103;0,214621413;0,303639015;0,380545518;0,28320333;0,125472312;0,053126103;2;0;1;0;0
0;0,529825659;1;0,5;2;0,602857655;1;0,549146357;2;0,855555556;0,908333333;0,880555556;0,8675;1;-0,052777778;0,025;2,021510785;0,9910862;0,344337701;0,160072865;0,307075765;0,570505314;0,287868064;-0,170542736;-0,283795888;-0,183612444;-0,132814395;-0,120694393;-0,111271704;-0,103066595;-0,028039939;0,036672456;0,127560844;0,222273111;0,31392527;0,349804831;0,212451012;0,070305299;-0,006443222;2;0;1;0;0
0;0,529825659;1;0,5;2;0,601511269;1;0,550521448;2;0,880555556;0,855555556;0,866666667;0,8675;1;0,025;-0,013888889;2,29876172;0,995586068;0,321456101;0,360304872;0,357762641;0,606173807;0,382618042;-0,070984108;-0,137093692;-0,046812324;-0,031523807;-0,025161447;-0,025312957;-0,024858426;0,006026306;0,033795488;0,089360748;0,165054382;0,257842844;0,343803077;0,279783287;0,110522997;0,028191436;2;0;1;0;0
0;0,530517575;2;0,5;2;0,602172696;1;0,549146357;2;0,866666667;0,880555556;0,830555556;0,8675;1;-0,013888889;-0,036111111;2,080931311;0,999993828;0,421998698;0,379507823;0,58164716;0,761594156;0,59756889;0,140662094;-0,19734618;-0,153270163;-0,088759133;-0,069626395;-0,064645921;-0,053163898;-0,013113258;0,027244619;0,091315555;0,187418551;0,291201611;0,368816656;0,261518807;0,100928678;0,034098353;2;0;1;0;0
1;0,567638376;2;0,515966792;0;0,669401152;0;0,581218578;2;1,108333333;0,8;0,841666667;0,931790123;1;0,308333333;-0,266666667;3,118546187;0,999774459;-0,013460389;-0,013924484;-0,001508586;0,010559687;-0,01926106;-0,112548787;-0,285651983;-0,593191282;-0,679077237;-0,508173586;-0,306612741;-0,110514608;0,006295349;0,031205921;0,122276532;0,187824752;0,2353679;0,244554289;0,187152958;0,121590614;0,055643978;2;0;1;0;0
1;0,535357553;2;0,539500846;1;0,598961851;1;0,566274394;2;0,841666667;1,108333333;0,980555556;0,931790123;1;-0,266666667;0,138888889;1,36914974;0,505493871;-0,455734227;-0,241715485;-0,04380787;0,005250981;0,003075177;0,002494958;0,002378915;0,001537591;0,004235611;0,004699782;0,001827703;0,007890885;0,07228567;0,130270101;0,196988078;0,22757021;0,225808904;0,187600842;0,144274398;0,083934553;0,039550643;2;0;1;0;0
0;0,568319983;2;0,5;2;0,665416756;0;0,581894546;2;0,980555556;0,841666667;0,963888889;0,931790123;1;0,138888889;-0,016666667;2,78543562;0,999822938;-0,010443654;-0,014040499;0,001624625;0,01833303;-0,014620601;-0,102684592;-0,285332217;-0,561006682;-0,680761987;-0,547013196;-0,347333278;-0,162432676;0,006962576;0,041520163;0,133462853;0,189503466;0,225368347;0,210224703;0,149837612;0,088772081;0,028771174;2;0;1;0;0
0;0,567638376;2;0,5;2;0,659147978;0;0,574442517;2;0,963888889;0,980555556;0,922222222;0,931790123;1;-0,016666667;-0,041666667;1,932048459;0,999557524;0,004873848;0,008471076;0,017056941;0,031205929;-0,00440967;-0,097859723;-0,279565739;-0,562912229;-0,659347135;-0,506967507;-0,298706702;-0,097170075;0,001856716;0,060963882;0,120904584;0,19229886;0,21996409;0,23668286;0,201222965;0,130726375;0,071823901;2;0;1;0;0
1;0,566956512;2;0,516660497;0;0,658516056;0;0,573083857;2;0,922222222;0,963888889;0,913888889;0,931790123;1;-0,041666667;-0,008333333;1,933065994;0,999770717;-0,017172943;-0,01009555;0,000928366;0,009863494;-0,013344361;-0,100617372;-0,320112234;-0,618882185;-0,67220264;-0,484653304;-0,274637575;-0,082061811;0,004496707;0,060732651;0,122733745;0,198326211;0,224597147;0,224266547;0,174243761;0,11323618;0,068937152;2;0;1;0;0
0;0,566956512;2;0,5;2;0,662084902;0;0,578511679;2;0,913888889;0,922222222;0,894444444;0,931790123;1;-0,008333333;-0,019444444;2,078063522;0,999229402;-0,007310693;-0,009863489;-0,001160448;0,011371902;-0,033060723;-0,143819851;-0,348251357;-0,611380351;-0,609997775;-0,42866582;-0,237340013;-0,044676506;0,004351653;0,065124885;0,150064483;0,206006001;0,230539026;0,20467218;0,138360595;0,078401113;0,020305053;2;0;1;0;0
1;0,566274394;2;0,517354137;0;0,649046762;0;0,573763326;2;0,894444444;0,913888889;0,961111111;0,931790123;1;-0,019444444;0,066666667;2,19783995;0,998600851;-0,004873847;0,001160444;0,003597368;0,010791745;-0,026915902;-0,136311191;-0,35506483;-0,59999266;-0,590401373;-0,396021735;-0,195649222;-0,035176078;0,004322643;0,040014087;0,111746687;0,181884564;0,212441943;0,21432488;0,178291569;0,114725164;0,065702625;2;0;1;0;0
0;0,566956512;2;0,5;2;0,653104561;0;0,574442517;2;0,8;0,755555556;0,85;0,787121212;1;0,044444444;0,05;2,666616206;0,999978275;-0,023756014;-0,018266081;-0,008596549;0,002865579;-0,026619781;-0,125421854;-0,36854186;-0,675803244;-0,719784084;-0,53678188;-0,315101483;-0,112356053;0,003044676;0,045578977;0,121777024;0,198287394;0,247855617;0,251326415;0,206874786;0,117893433;0,041288712;2;0;1;0;0
1;0,567638376;2;0,511803362;0;0,662689627;0;0,570363245;2;0,85;0,8;0,725;0,787121212;1;0,05;-0,125;2,236085264;0,999974983;-0,018266081;-0,013252562;0,001671588;0,018146718;-0,02148859;-0,124128911;-0,342572593;-0,638453985;-0,724639343;-0,572961645;-0,331140909;-0,129298116;0,002119337;0,046055574;0,120835885;0,190820236;0,253115272;0,271017685;0,242693681;0,164109463;0,092389723;2;0;1;0;0
0;0,551208705;2;0,5;2;0,620034926;0;0,563543437;2;0,725;0,85;0,844444444;0,787121212;1;-0,125;0,119444444;1,985553697;0,999997738;-0,128945898;-0,328906625;-0,607188933;-0,761129935;-0,67241591;-0,455743439;-0,238531673;-0,043344664;0,004119258;0,000388047;0,0043879;0,004656544;0,032107405;0,10267856;0,162482444;0,219525483;0,247967677;0,241569687;0,198172687;0,126126921;0,06676421;2;0;1;0;0
1;0,569001333;2;0,511109282;0;0,665893796;0;0,575800054;2;0,844444444;0,725;0,763888889;0,787121212;1;0,119444444;-0,080555556;2,76434472;0,999986756;-0,022204643;-0,019459649;-0,001910389;0,00967105;-0,016356264;-0,0925081;-0,298988745;-0,598141333;-0,734467876;-0,628156938;-0,410660033;-0,205159812;0,004029709;0,048795581;0,122247514;0,202871212;0,247743548;0,257579835;0,198975523;0,122600341;0,04283816;2;0;1;0;0
0;0,551208705;2;0,5;2;0,623112552;0;0,558755072;2;0,763888889;0,844444444;0,733333333;0,787121212;1;-0,080555556;-0,030555556;1,868518322;0,999974734;-0,098187154;-0,297465821;-0,586594127;-0,734082706;-0,603558125;-0,377688908;-0,178798149;-0,016803886;0,003313322;0,002984977;0,004596845;0,007342932;0,046055572;0,119070665;0,188287833;0,231876851;0,261588568;0,254679111;0,215999632;0,147800515;0,08611198;2;0;1;0;0
1;0,551208705;2;0,519434648;0;0,619889267;0;0,558755072;2;0,733333333;0,763888889;0,775;0,787121212;1;-0,030555556;0,041666667;2,268619057;0,999985322;-0,102324124;-0,3041986;-0,608694334;-0,734192803;-0,617708901;-0,393342982;-0,199290856;-0,017878158;0,003104375;0,003014826;0,014446325;0,029005921;0,069378824;0,142423813;0,200580403;0,258805675;0,275216415;0,261811014;0,20870269;0,138561412;0,071754921;2;0;1;0;0
1;0,551208705;2;0,518741216;0;0,627212306;0;0,562860088;2;0,775;0,733333333;0,738888889;0,787121212;1;0,041666667;-0,036111111;2,455150061;0,999994943;-0,113299089;-0,288953423;-0,581717517;-0,759214622;-0,662619275;-0,4315802;-0,217251398;-0,038129623;0,0043879;0,003343172;0,001850689;0,00340287;0,052606536;0,119776845;0,19817269;0,253115278;0,268471317;0,250207506;0,187942314;0,116009172;0,05058215;2;0;1;0;0
1;0,551208705;2;0,523593576;0;0,620434064;0;0,566274394;2;0,738888889;0,775;0,880555556;0,787121212;1;-0,036111111;0,141666667;2,477612068;0,999989458;-0,110351431;-0,311655931;-0,587767618;-0,736331975;-0,635260239;-0,427197888;-0,235827294;-0,045817278;0,009133801;0,00397001;0,002507385;0,001253692;0,017311186;0,081606718;0,161203455;0,218729822;0,252109251;0,236503726;0,18333093;0,094401805;0,038904565;2;0;1;0;0
0;0,568319983;2;0,5;2;0,668728387;0;0,57783421;2;0,880555556;0,738888889;0,791666667;0,787121212;1;0,141666667;-0,088888889;2,841408092;0,999986385;-0,031630291;-0,031630291;-0,013849448;0,004656543;-0,026381152;-0,131058765;-0,349194803;-0,622631812;-0,725036016;-0,609370335;-0,387879195;-0,189324124;0,005074432;0,075911114;0,15992392;0,227126221;0,262255816;0,23424804;0,153401681;0,071636135;0,014207575;2;0;1;0;0
0;0,567638376;2;0,5;2;0,653846638;0;0,57783421;2;0,969444444;0,955555556;1,080555556;0,980277778;1;0,013888889;0,111111111;2,294844786;0,999901614;0,007555234;0,009332844;0,019996868;0,034097095;-0,000222222;-0,111531479;-0,306281824;-0,598471191;-0,699779794;-0,543256273;-0,327966269;-0,117863564;0,006360878;0,052727614;0,134946425;0,19095572;0,211742593;0,171721992;0,119095984;0,064575189;0,015553942;2;0;1;0;0
0;0,566956512;2;0,5;2;0,66384297;0;0,569682421;2;1,080555556;0,969444444;0,813888889;0,980277778;1;0,111111111;-0,266666667;1,997220185;0,999926306;-0,006444207;-0,002777708;0,008999552;0,026992822;-0,012554601;-0,142791918;-0,366937949;-0,655746906;-0,689488689;-0,500760469;-0,290619779;-0,072620257;0,005027619;0,036982271;0,107799219;0,165136664;0,205259644;0,215453964;0,183235981;0,129925081;0,080159125;2;0;1;0;0
0;0,535357553;2;0,5;2;0,591840772;1;0,557384918;2;0,813888889;1,080555556;0,944444444;0,980277778;1;-0,266666667;0,130555556;1,395828521;0,509137912;-0,478033692;-0,268677687;-0,060092784;0,007721891;0,001499963;0,00319436;-0,000277771;0,001944397;0,002916591;0,00247216;0,00274993;0,012582378;0,066234685;0,120191163;0,166757396;0,20195807;0,212697531;0,206642786;0,171182778;0,128832597;0,090416965;2;0;1;0;0
0;0,566956512;2;0,5;2;0,643727423;0;0,575121427;2;0,944444444;0,813888889;1,136111111;0,980277778;2;0,130555556;0,191666667;3,310205827;0,999915182;-0,015331772;-0,013110052;-0,002555486;0,009332852;-0,024105878;-0,146925439;-0,372501327;-0,658839077;-0,688028687;-0,486983807;-0,263102025;-0,059262442;0,004444313;0,04319433;0,113615783;0,1736623;0,208237698;0,199932251;0,15701979;0,106700917;0,061697885;2;0;1;0;0
0;0,567638376;2;0,5;2;0,662899539;0;0,570363245;2;1,136111111;0,944444444;0,869444444;0,980277778;1;0,191666667;-0,266666667;2,289239345;0,999942196;-0,00955505;-0,009110652;0,002333272;0,018330852;-0,024327975;-0,15365855;-0,365976074;-0,641785969;-0,693085413;-0,524107809;-0,325882369;-0,12462363;0,003722119;0,021024193;0,076846415;0,12806767;0,166973432;0,185597233;0,170967063;0,124678314;0,083911387;2;0;1;0;0
0;0,535357553;2;0,5;2;0,592700853;1;0,565592025;2;0,869444444;1,136111111;1,105555556;0,980277778;1;-0,266666667;0,236111111;1,411637463;0,513989981;-0,492137009;-0,291102905;-0,085648773;0,009277297;0,003194359;2,78E-05;0,003611013;0,000527766;0,000111108;0,003749896;0,00319436;0,004972066;0,049735557;0,098125401;0,141049989;0,171614155;0,172261096;0,149750693;0,108567875;0,062583321;0,030212326;2;0;1;0;0
0;0,567638376;2;0,5;2;0,663093635;0;0,571043803;2;1,105555556;0,869444444;0,844444444;0,980277778;1;0,236111111;-0,261111111;2,62924261;0,999913642;-0,015220696;-0,012443514;-0,001666627;0,009221747;-0,03043434;-0,147468953;-0,345500286;-0,619849743;-0,687267286;-0,527243604;-0,329848955;-0,134755522;0,002305498;0,021051959;0,067562023;0,122271198;0,169456613;0,198011479;0,183665458;0,137563522;0,097024896;2;0;1;0;0
0;0,536048456;2;0,5;2;0,594268293;1;0,565592025;2;0,844444444;1,105555556;1,083333333;0,980277778;1;-0,261111111;0,238888889;1,47967092;0,536480711;-0,513306704;-0,317814907;-0,113643202;0,00247216;0,002861038;0,002972144;0,002666598;0,004610972;0,000888868;0,00038888;0,00211106;0,003444352;0,053613968;0,103404449;0,156694667;0,182054561;0,183235984;0,148881647;0,106151666;0,062140615;0,032765288;2;0;1;0;0
1;0,522900633;1;0,545705388;1;0,620985399;0;0,549833997;2;0,863888889;0,788888889;0,872222222;0,828055556;1;0,075;0,008333333;2,661881592;0,99996231;0,110199225;0,340542965;0,618044223;0,748315157;0,558735139;0,228344873;0,114309513;0,027638322;-0,035284796;-0,070314817;-0,078527389;-0,086196205;-0,169295525;-0,111326618;-0,059149349;-0,019938273;0,008593856;0,014333653;0,007200768;-0,001158182;-0,004213087;2;0;1;0;0
1;0,523593576;1;0,54294945;1;0,64504793;0;0,553955755;2;0,872222222;0,863888889;0,788888889;0,828055556;1;0,008333333;-0,083333333;2,093565614;0,999066036;0,022958229;0,181594419;0,495435757;0,692892507;0,454958958;0,226562179;0,185098158;0,138423424;0,089260922;0,048036049;-0,003961308;-0,044853731;-0,165706384;-0,130050208;-0,076658759;0,004364147;0,030070156;0,022337495;0,013226034;0,011346367;0,001141397;2;0;1;0;0
1;0,522207602;1;0,547770514;1;0,639975028;0;0,556699512;2;0,788888889;0,872222222;0,763888889;0,828055556;1;-0,083333333;-0,025;1,85728875;0,999994758;0,25771866;0,504950348;0,691002814;0,744299624;0,645624353;0,372074266;0,203317235;0,13341498;0,070114387;0,014199393;-0,021414748;-0,059099175;-0,171642376;-0,130314224;-0,02523971;0,019602692;0,011212092;0,012621859;0,008526713;-0,001745675;-0,006848293;2;0;1;0;0
1;0,526364414;1;0,544327758;1;0,628624826;0;0,547082318;2;0,763888889;0,788888889;0,758333333;0,828055556;1;-0,025;-0,005555556;2,170565032;0,99999676;0,05841335;0,322074497;0,643858962;0,755839156;0,660902212;0,381866105;0,207240252;0,129984203;0,070982879;0,010893216;-0,046512011;-0,083196532;-0,188467696;-0,157794902;-0,082463048;-0,011346369;0,003558461;0,007922482;0,001342817;-0,004498432;-0,004162729;2;0;1;0;0
1;0,524979187;1;0,54294945;1;0,627439439;0;0,553269295;2;0,758333333;0,763888889;0,811111111;0,828055556;1;-0,005555556;0,052777778;2,415314207;0,999602408;0,03791656;0,186070596;0,478379598;0,722015993;0,521467835;0,245265759;0,153208683;0,079328069;0,021968403;-0,019048991;-0,055334852;-0,072652747;-0,178801097;-0,121592248;-0,048772876;0,006781149;0,01758916;0,015441236;0,002836706;-0,006042628;-0,011480626;2;0;1;0;0
1;0,523593576;1;0,544327758;1;0,611464381;0;0,54019088;2;0,811111111;0,758333333;0,855555556;0,828055556;1;0,052777778;0,044444444;2,690614551;0,999949366;0,101170089;0,335011279;0,600870122;0,737852916;0,553971796;0,253812535;0,151388724;0,059065716;-0,029952768;-0,07717602;-0,088245087;-0,097912773;-0,199387672;-0,177305811;-0,107479043;-0,038050638;-0,006982559;0,005169824;0,009600889;0,002887064;0,006244047;2;0;1;0;0
1;0,522207602;1;0,546393941;1;0,622384462;0;0,551208705;2;0,855555556;0,811111111;0,872222222;0,828055556;1;0,044444444;0,016666667;2,506001556;0,999988224;0,165706378;0,366507763;0,624229708;0,761594156;0,617088932;0,275865348;0,160543383;0,065235541;-0,022018734;-0,070314819;-0,088461593;-0,092323955;-0,172456791;-0,119739667;-0,034027406;0,002282796;0,014434342;0,013679155;0,009550535;0,002752777;0,000990329;2;0;1;0;0
1;0,52567185;1;0,544327758;1;0,632496378;0;0,561492677;2;0,872222222;0,855555556;0,905555556;0,828055556;1;0,016666667;0,033333333;2,359139132;0,999579563;0,05955078;0,253702611;0,537603538;0,7086417;0,483489111;0,220310867;0,113050317;0,025323579;-0,019502023;-0,050112413;-0,071316884;-0,082196299;-0,173791929;-0,131963878;-0,066305152;-0,003289902;0,020408071;0,021934847;0,01349455;0,000335706;-0,008325306;2;0;1;0;0
1;0,522207602;1;0,545705388;1;0,625178393;0;0,548458528;2;0,891666667;0,830555556;0,822222222;0,828030303;1;0,061111111;-0,069444444;2,366750895;0,999988613;0,120679001;0,361747164;0,639383725;0,761594156;0,602159689;0,243664359;0,147458004;0,099139705;0,041738466;-0,014490785;-0,058739365;-0,081221777;-0,156467031;-0,124571874;-0,06557994;-0,008299658;0,009946316;0,008760727;0,006652955;0,001646794;0,000592846;2;0;1;0;0
0;0,521514485;1;0,5;2;0,633405698;0;0,552582631;2;0,822222222;0,891666667;0,772222222;0,828030303;1;-0,069444444;-0,05;1,851840995;0,999966059;0,191912307;0,360888084;0,607257315;0,739008205;0,586698766;0,317826321;0,214032314;0,136550276;0,051531943;-0,012152752;-0,058230605;-0,085293867;-0,19609621;-0,153123773;-0,077310669;-0,012449128;0,01653232;0,012778438;0,008365527;0,006587088;0,003425322;2;0;1;0;0
1;0,522900633;1;0,545705388;1;0,631835172;0;0,556699512;2;0,772222222;0,822222222;0,791666667;0,828030303;1;-0,05;0,019444444;2,097436608;0,999979204;0,094637225;0,33366507;0,610779674;0,755497031;0,603292123;0,243726324;0,143782935;0,0671539;-0,005137957;-0,060331094;-0,088693275;-0,104420036;-0,174405787;-0,119445482;-0,031607939;0,001778536;0,006784692;0,004479252;0,003474724;-0,000856333;-0,004940345;2;0;1;0;0
1;0,524286429;1;0,543638687;1;0,61435032;0;0,543638687;2;0,791666667;0,772222222;0,822222222;0,828030303;1;0,019444444;0,030555556;2,472986043;0,999963811;0,048706571;0,251764001;0,57177416;0,757385073;0,596715651;0,25884546;0,157238043;0,082939261;0,007608048;-0,051334848;-0,074756521;-0,083266345;-0,151788705;-0,128136976;-0,070628534;-0,012844297;0,018178619;0,017981069;0,01238327;0,009024195;0,005681384;2;0;1;0;0
1;0,522900633;1;0,545705388;1;0,633111771;0;0,559439815;2;0,822222222;0,791666667;0,830555556;0,828030303;1;0,030555556;0,008333333;2,450283876;0,999835847;0,102530208;0,309690358;0,579219354;0,717293911;0,499455542;0,254723069;0,167243468;0,076050095;0,006257741;-0,039683384;-0,070694075;-0,082808421;-0,173639262;-0,125738993;-0,034042567;0,018507866;0,019232198;0,016565247;0,008777196;-0,006834094;-0,006126005;2;0;1;0;0
1;0,522207602;1;0,545705388;1;0,616467769;0;0,544327758;2;0,830555556;0,822222222;0,844444444;0,828030303;1;0,008333333;0,013888889;2,328884726;0,99996289;0,129238253;0,342591087;0,628829053;0,756428537;0,524722044;0,208982588;0,129432562;0,07698327;0,024285453;-0,031147289;-0,061249893;-0,076819565;-0,176560498;-0,156724059;-0,102530208;-0,046866373;-0,005533177;0,006916429;0,004413382;0,003013625;0,004100498;2;0;1;0;0
1;0,523593576;1;0,545016659;1;0,635150685;0;0,561492677;2;0,844444444;0,830555556;0,85;0,828030303;1;0,013888889;0,005555556;2,324890403;0,999901565;0,10109605;0,28143804;0,573500748;0,730767978;0,533590739;0,268468317;0,179255495;0,098813571;0,027297083;-0,028514763;-0,056457914;-0,06977642;-0,145411423;-0,086013141;-0,008365525;0,016795733;0,013305322;0,011592919;0,00988045;-0,001449179;-0,01343704;2;0;1;0;0
1;0,520821285;1;0,546393941;1;0,61802304;0;0,545705388;2;0,85;0,844444444;0,863888889;0,828030303;1;0,005555556;0,013888889;2,291004926;0,999867789;0,148424455;0,361861662;0,592286256;0,708253309;0,511275794;0,2568162;0,196729518;0,124717783;0,048903716;-0,012696108;-0,041935734;-0,056326589;-0,132556338;-0,109954795;-0,075215032;-0,032397588;0,008892461;0,024170247;0,021536753;0,01244913;0,00992985;2;0;1;0;0
1;0,522207602;1;0,545705388;1;0,631328521;0;0,549146357;2;0,863888889;0,85;0,788888889;0,828030303;1;0,013888889;-0,075;2,143534842;0,99952597;0,118666223;0,274813455;0,515060731;0,688103557;0,511178483;0,247007338;0,178362774;0,110296431;0,042313828;-0,005648448;-0,03723329;-0,057574093;-0,13978099;-0,116262593;-0,063021562;-0,008431391;0,01159292;0,01435907;0,00909006;0,001976153;0,005796656;2;0;1;0;0
0;0,564226544;2;0,5;2;0,650611034;0;0,553269295;2;0,819444444;0,847222222;0,838888889;0,837626263;1;-0,027777778;0,019444444;2,166572274;0,99999977;0,017275007;0,259884166;0,51899756;0,638299007;0,102950452;-0,56782709;-0,663251821;-0,654349605;-0,527657284;-0,22497967;-0,069595896;-0,027498325;-0,170651382;-0,099292285;-0,001396754;0,013687326;0,02434167;0,020926761;0,011925531;-0,003889421;-0,018649879;3;0;0;1;0
0;0,563543437;2;0,5;2;0,649682039;0;0,555328055;2;0,838888889;0,819444444;0,858333333;0,837626263;1;0,019444444;0,019444444;2,391533958;0,999999868;0,035140632;0,287670777;0,517661761;0,653919301;0,05973118;-0,595959247;-0,674179903;-0,658945396;-0,5100711;-0,208926102;-0,043636845;-0,001461219;-0,137846338;-0,071562997;0,000515713;0,00715554;0,022129519;0,020432686;0,008745573;-0,011238009;-0,010228176;3;0;0;1;0
0;0,563543437;2;0,5;2;0,65384117;0;0,555328055;2;0,858333333;0,838888889;0,833333333;0,837626263;1;0,019444444;-0,025;2,275310517;0,999999851;0,047410956;0,305309641;0,503427472;0,655368277;0,143238688;-0,570137641;-0,672017348;-0,65714221;-0,524611422;-0,219505196;-0,042435705;-0,00541504;-0,138689437;-0,083523996;0,003760462;0,008810047;0,012376745;0,023890638;0,014546681;-0,000515709;-0,012720472;3;0;0;1;0
