A1	A2	A3	A4	A5	A6	A7	A8	A9	A10	A11	A12	A13	A14	A15	A16	A17	A18	A19	A20	A21	A22	A23	A24	A25	A26	A27	A28	A29	A30	A31	A32	A33	A34	A35	A36	A37	A38	A39	Clase	C1	C2	C3	C4
1	0.5256718502	1	0.5401908798	1	0.6373000202	0	0.5505214477	2	0.8416666667	0.8388888889	0.8222222222	0.803030303	1	0.0027777778	-0.0194444444	2.2190885493	0.9871602983	-0.0520737646	-0.0868538443	0.2975463814	0.6743133865	0.2994311976	-0.0101777678	-0.0053686244	-0.0159928215	-0.0138681981	-0.0206888273	-0.0174464335	-0.0131972363	-0.0240425664	-0.0067107486	0.0048932882	0.0300778893	0.0440393922	0.0439277619	0.0426997473	0.0221421735	0.0223657621	1	1	0	0	0
1	0.5263644141	1	0.5395008458	1	0.6247558373	0	0.5367392212	1	0.8222222222	0.8416666667	0.8083333333	0.803030303	1	-0.0194444444	-0.0138888889	2.1387425328	0.9776766899	-0.0346308936	-0.0949788937	0.2293558997	0.6511449014	0.2891129869	-0.0138681887	-0.0008947744	-0.0090593954	-0.0092830753	-0.0016777104	-0.0055923163	-0.0164400972	-0.0691231631	-0.0522968507	-0.0182291111	0.0139800247	0.0323406026	0.0361110252	0.0190956363	0.0200459595	0.0171109723	1	1	0	0	0
1	0.5256718502	1	0.5401908798	1	0.6407252649	0	0.5539557547	2	0.8083333333	0.8222222222	0.7805555556	0.803030303	1	-0.0138888889	-0.0277777778	2.1489767166	0.9927331149	-0.0434812099	-0.0751870825	0.3525157731	0.7030210409	0.269339316	-0.04984262	-0.0191235828	-0.0210242214	-0.0206888273	-0.0219185861	-0.0247132508	-0.0242661285	-0.0553079827	-0.000391466	0.0064031766	0.0195708037	0.0165519094	0.019570804	0.0156573636	0.0030198688	0.0004473926	1	1	0	0	0
1	0.5263644141	1	0.5395008458	1	0.6293692033	0	0.5443277579	2	0.7805555556	0.8083333333	0.7583333333	0.803030303	1	-0.0277777778	-0.0222222222	2.1116409862	0.9915658944	-0.033429917	-0.0937041023	0.2374988223	0.7037839048	0.3345627989	-0.0182291163	-0.0156573616	-0.0322009265	-0.0374513739	-0.0400200039	-0.0392383008	-0.0365578192	-0.0413599468	-0.038903269	-0.0091153126	0.0120230176	0.0237072023	0.0272839926	0.0237072036	0.0136445321	0.013420877	1	1	0	0	0
1	0.5256718502	1	0.5401908798	1	0.6334056978	0	0.5532692946	2	0.7583333333	0.7805555556	0.7722222222	0.803030303	1	-0.0222222222	0.0138888889	2.2317690032	0.9759231506	-0.0398804092	-0.095976349	0.2682497701	0.6552808319	0.2079771539	-0.0204652294	-0.0220303848	-0.0291838963	-0.0320891954	-0.0288486341	-0.0261663269	-0.0263898658	-0.0380098117	-0.0142316283	0.0180613987	0.0402433326	0.0414715996	0.0433695834	0.027954575	0.0008947784	-0.0039146406	1	1	0	0	0
1	0.5249791875	1	0.5401908798	1	0.6204253046	0	0.5353575526	1	0.7722222222	0.7583333333	0.7777777778	0.803030303	1	0.0138888889	0.0055555556	2.3987633859	0.9720881965	-0.0593212538	-0.0895450426	0.3012882636	0.6391148203	0.1825894355	-0.024042557	-0.012749913	-0.0181173006	-0.0112961074	-0.0098422515	-0.0040264835	-0.0163282732	-0.0545274048	-0.0403549853	-0.0083603948	0.0111004051	0.0246573601	0.0260545538	0.0171109857	0.021136014	0.0253839128	1	1	0	0	0
1	0.5235935763	1	0.5422600473	1	0.6231911573	0	0.5401908798	2	0.7777777778	0.7722222222	0.8	0.803030303	1	0.0055555556	0.0222222222	2.3866986154	0.9982688034	-0.1083446898	0.0565623375	0.4968511581	0.7285590554	0.3112211276	-0.0267251798	-0.0165519161	-0.0161046441	-0.0154337243	-0.0138682041	-0.0166637359	-0.0181173119	-0.0629984225	-0.0442626508	-0.0078291648	0.0086959207	0.0112961064	0.0272839956	0.0209124155	0.0120789304	0.013085396	1	1	0	0	0
1	0.5256718502	1	0.5401908798	1	0.639645269	0	0.5580701059	2	0.8	0.7777777778	0.8194444444	0.803030303	1	0.0222222222	0.0194444444	2.4533891312	0.995175034	-0.0517391188	-0.0919022372	0.3145507452	0.7234548863	0.3242678608	-0.01420367	-0.0090593921	-0.0286251195	-0.0358876124	-0.0345471046	-0.0338768081	-0.0374513679	-0.0470530033	-0.0352173727	0.0085840801	0.0351056603	0.034993951	0.0320891908	0.0276192887	0.0114079403	-0.0052567842	1	1	0	0	0
1	0.5263644141	1	0.5401908798	1	0.6358289111	0	0.5539557547	2	0.8194444444	0.8	0.8138888889	0.803030303	1	0.0194444444	-0.0055555556	2.3592413542	0.9927820739	-0.1022889812	-0.1275898211	0.2513016428	0.7000389446	0.357013204	-0.0093949132	-0.0116316127	-0.0169991775	-0.0135327211	-0.0112961148	-0.0117434467	-0.0133090647	-0.018229119	-0.0056202775	0.01188323	0.0375630562	0.0378981188	0.0374513659	0.02437791	0.0106251071	0.0034672568	1	1	0	0	0
1	0.5263644141	1	0.5395008458	1	0.6431394771	0	0.5539557547	2	0.7722222222	0.7694444444	0.7944444444	0.8047979798	1	0.0027777778	0.0222222222	2.3759950472	0.9764758614	-0.0409555554	-0.1077843029	0.2367681117	0.6588914273	0.2250767749	-0.0335558161	-0.0074991791	-0.0172586333	-0.0253494329	-0.0223752076	-0.0191625926	-0.0235649425	-0.0651398904	-0.0022319353	0.0134801191	0.0289179204	0.0218993063	0.0180916467	0.0194005934	-0.007975313	-0.0083323971	1	1	0	0	0
1	0.5263644141	1	0.5395008458	1	0.6198702933	0	0.5319010518	1	0.7944444444	0.7722222222	0.8055555556	0.8047979798	1	0.0222222222	0.0111111111	2.439406682	0.9853168882	-0.0293936709	-0.0839610257	0.259610351	0.6838730095	0.2553868802	-0.025706332	-0.0007142226	-0.004285312	-0.0060708189	-0.0023807394	0.0048804732	0.002142657	-0.0257360645	-0.0150867902	0.0070528242	0.0103856021	0.0151165419	0.019906304	0.017377648	0.0116650947	0.0174966522	1	1	0	0	0
1	0.5263644141	1	0.5395008458	1	0.642323814	0	0.5635434368	2	0.8055555556	0.7944444444	0.8472222222	0.8047979798	1	0.0111111111	0.0416666667	2.4348772915	0.9942975109	-0.033109929	-0.0910780258	0.2770358539	0.7209074977	0.3293618756	-0.0129743029	-0.0098797521	-0.0185676399	-0.0273716685	-0.0336747277	-0.0302261822	-0.0278474552	-0.0339125324	-0.0068147672	0.0074099164	0.0277285166	0.0248736055	0.0205904968	0.013628903	-0.0064278979	-0.0103558381	1	1	0	0	0
1	0.5249791875	1	0.5408807599	1	0.643461815	0	0.5594398153	2	0.8472222222	0.8055555556	0.8416666667	0.8047979798	1	0.0416666667	-0.0055555556	2.4518160498	0.9986552045	-0.0692281302	-0.0711825609	0.4291771347	0.7582242592	0.3320123718	-0.0122601925	-0.0052375747	-0.0111890044	-0.0165446282	-0.0264200603	-0.022970091	-0.0151165325	-0.0341503241	0.0041960345	0.0539902496	0.0551770745	0.0504288827	0.04163887	0.0285611203	0.0148785378	-0.0071420869	1	1	0	0	0
1	0.5249791875	1	0.5415704832	1	0.6352331447	0	0.5477705142	2	0.8416666667	0.8472222222	0.8305555556	0.8047979798	1	-0.0055555556	-0.0111111111	2.1938477179	0.9991737862	-0.1063428097	-0.0022021772	0.4973093968	0.7526928436	0.3697898463	-0.0145810006	0.0035710883	0.0015474711	-0.0032139974	-0.0023807359	-0.0160686137	-0.0146405152	-0.0814783585	-0.0279366692	0.0072313701	0.0242787763	0.01821065	0.0290368608	0.0146405082	-0.0016665126	-0.0011903647	1	1	0	0	0
1	0.5249791875	1	0.5401908798	1	0.6308898733	0	0.5457053876	2	0.8305555556	0.8416666667	0.7944444444	0.8047979798	1	-0.0111111111	-0.0361111111	2.1280543125	0.9892825146	-0.0404504855	-0.0819513134	0.3523999933	0.6904696617	0.2110467008	-0.0183296372	-0.0044043346	-0.0127362642	-0.007499182	0.0030949624	0.0014284494	-0.0057137086	-0.0302559106	-0.0214531158	0.0061600853	0.0084514254	0.017496643	0.0238028969	0.024992562	0.0142834559	0.0116650891	1	1	0	0	0
1	0.5270568766	1	0.5395008458	1	0.6226661085	0	0.5408807599	2	0.7944444444	0.8305555556	0.7972222222	0.8047979798	1	-0.0361111111	0.0027777778	2.1142246074	0.9966997974	-0.0400642469	-0.1041650185	0.2705943161	0.7365209253	0.3829699182	-0.0139264259	-0.0136883958	-0.030345112	-0.0336747362	-0.0287989897	-0.0290368637	-0.0330802085	-0.0348637034	-0.0398562671	-0.0092846199	0.0160388541	0.0383111455	0.0429459157	0.0309397361	0.0300180584	0.0289179214	1	1	0	0	0
1	0.5256718502	1	0.5401908798	1	0.6361414273	0	0.5477705142	2	0.7972222222	0.7944444444	0.7833333333	0.8047979798	1	0.0027777778	-0.0138888889	2.2716747094	0.998266959	-0.0658510585	-0.0910485204	0.4021257768	0.7535172135	0.3264403225	-0.0180916545	-0.0109509719	-0.0248736005	-0.0220182886	-0.0203525206	-0.0183296514	-0.0198765686	-0.0298694003	-0.0053566217	0.0346853618	0.0542276171	0.0474600722	0.0358148048	0.0243977384	0.0098797429	0.0049995114	1	1	0	0	0
1	0.5256718502	1	0.5401908798	1	0.63132711	0	0.5470823178	2	0.7833333333	0.7972222222	0.8166666667	0.8047979798	1	-0.0138888889	0.0333333333	2.3005143163	0.9844216073	-0.037865409	-0.0926124586	0.3011156695	0.6766143999	0.2174068066	-0.0418765208	-0.0128552915	-0.0092846245	-0.0074991997	-0.020233537	-0.0372413531	-0.0398562784	-0.0825424919	-0.0444904456	0.0040174753	0.0200252899	0.0226131659	0.0354581434	0.0147892642	-0.0025295353	-0.0078562815	1	1	0	0	0
1	0.5277492351	1	0.5325926076	1	0.6159606438	0	0.5512087053	2	0.8	0.775	0.8305555556	0.7909090909	1	0.025	0.0305555556	2.4964347795	0.998558592	-0.0191079262	-0.0075015255	0.3690174193	0.7315849377	0.4590872802	0.1898853395	0.0813646984	0.0491011193	0.0277442816	-0.0223825462	0.0118691611	-0.0440555963	-0.08035057	-0.0164262118	-0.054309815	0.0099227536	0.0526527998	0.1062351595	0.0959906777	0.027815433	-0.0263921281	1	1	0	0	0
0	0.5291336291	1	0.5	2	0.6155233884	0	0.5457053876	2	0.8305555556	0.8	0.7944444444	0.7909090909	1	0.0305555556	-0.0361111111	2.3411417097	0.9927700002	-0.0790296068	-0.0215520701	0.3103506847	0.6691914259	0.4141055847	0.1572633802	0.020935122	-0.000973317	-0.0712162398	-0.0305431504	-0.0236163464	-0.048627461	-0.0625428935	0.0069318056	-0.0216469813	0.0313969517	0.0628975832	0.0800439435	0.0399085216	0.0313732358	-0.0065757294	1	1	0	0	0
1	0.5284414867	1	0.5325926076	1	0.6153291813	0	0.5498339973	2	0.7944444444	0.8305555556	0.7972222222	0.7909090909	1	-0.0361111111	0.0027777778	2.1142246074	0.9971881364	-0.0975663249	-0.042349538	0.3412214811	0.7212366026	0.411584835	0.1284060029	-0.0003560867	-0.0063858241	-0.0279103107	-0.0373721793	-0.0181349199	-0.0389367016	-0.0356178267	-0.0075015263	0.0053175717	0.058048793	0.0775195901	0.1177917196	0.06549815	0.0250398605	-0.0117742241	1	1	0	0	0
1	0.5277492351	1	0.5325926076	1	0.6126219556	0	0.5422600473	2	0.7972222222	0.7944444444	0.7722222222	0.7909090909	1	0.0027777778	-0.025	2.2471522523	0.9974171804	-0.0845003092	0.0003798459	0.3985275789	0.7088711823	0.4237744428	0.1031829002	-0.0023027043	-0.1028540246	-0.1022902697	-0.138315726	-0.1051083779	-0.1297365805	-0.1067749763	-0.0813646821	-0.0480116656	0.0122014681	0.0047478541	0.022501183	0.0203893412	-0.0077626447	0.0109434394	1	1	0	0	0
1	0.5291336291	1	0.5332840383	1	0.6181407756	0	0.548458528	2	0.7722222222	0.7972222222	0.7583333333	0.7909090909	1	-0.025	-0.0138888889	2.1476164219	0.9989284465	-0.0381544921	-0.01386295	0.4302768947	0.7452701611	0.4229170917	0.1600404046	0.0272461234	-0.0233553579	-0.0101601311	-0.0183722621	-0.0088308356	-0.0186807521	-0.0026113285	0.0017329787	0.008284871	0.0473958591	0.0998466211	0.1276821502	0.0790296119	0.021528352	-0.0025401173	1	1	0	0	0
1	0.5284414867	1	0.5312093734	1	0.6143690684	0	0.5436386872	2	0.7583333333	0.7722222222	0.7583333333	0.7909090909	1	-0.0138888889	-8.88178419700125E-016	2.2432602326	0.9975610542	0.0023027145	-0.0215758028	0.3573327724	0.720575294	0.4346193559	0.1519570127	0.0236875265	-0.0321795591	-0.050095717	-0.0397663074	-0.0283610138	-0.0454534164	-0.0405721502	-0.035475562	-0.0022315029	0.0169246	0.0324641344	0.0589714712	0.0334363967	0.0008546228	-0.0028249815	1	1	0	0	0
1	0.5284414867	1	0.5284414867	0	0.6519684378	0	0.5353575526	1	0.7583333333	0.7583333333	0.7833333333	0.7909090909	1	-8.88178419700125E-016	0.025	2.3787138603	0.9693100734	-0.050971832	-0.0998231174	0.1525599275	0.6167139803	0.3340492055	0.0246128237	-0.075135881	-0.1375705322	-0.1494745951	-0.1380363021	-0.1758198909	-0.1711227885	-0.0330332712	-0.0293098059	-0.0006647043	0.0620226506	0.1134586499	0.1321631728	0.1336556551	0.1231023831	0.1200150836	1	1	0	0	0
1	0.5298256594	1	0.5291336291	0	0.6074197459	1	0.5415704832	2	0.7833333333	0.7583333333	0.8166666667	0.7909090909	1	0.025	0.0333333333	2.522486305	0.9273736322	-0.0602488476	-0.0811524523	0.1790158002	0.5296367223	0.3150840381	0.115496916	0.0245416483	0.0061959148	-0.0036558581	-0.0014955822	-0.0012819279	-0.0017567157	-0.0219317157	-0.005768614	-0.0054125399	0.0186095646	0.0323455583	0.0469221166	0.0089257913	-0.0114893829	-0.0109671733	1	1	0	0	0
1	0.5298256594	1	0.5319010518	1	0.6163706731	0	0.548458528	2	0.8166666667	0.7833333333	0.8138888889	0.7909090909	1	0.0333333333	-0.0027777778	2.4470563369	0.9391103455	-0.0873515883	-0.1138335789	0.1652173832	0.5483304818	0.3021112044	0.0488642886	-0.0681687261	-0.103417737	-0.1140210387	-0.1164571504	-0.1151455708	-0.1156140384	-0.088647138	-0.0628739474	-0.0155955469	0.025372013	0.0526528117	0.0508534434	0.0228808228	-0.003703331	-0.0142426848	1	1	0	0	0
1	0.5298256594	1	0.5346665134	1	0.6115531235	0	0.5512087053	2	0.8916666667	0.9222222222	0.9	0.9180555556	1	-0.0305555556	0.0083333333	2.0506374422	0.9985332811	-0.0071501676	-0.0142129467	0.3878042703	0.7187597822	0.4757906633	0.2161991753	0.0636165228	-0.0007800251	-0.013519704	-0.0169856971	-0.0196715747	-0.0176138701	-0.0356929184	-0.0089267848	0.0350004337	0.0839585879	0.1334512441	0.1625890414	0.131577979	0.0602493471	0.0131514342	1	1	0	0	0
1	0.5298256594	1	0.5360484561	1	0.6159042469	0	0.5518957673	2	0.9	0.8916666667	0.8638888889	0.9180555556	1	0.0083333333	-0.0361111111	2.1477200364	0.9957418279	-0.0126964891	-0.0285933537	0.3302662299	0.6919603982	0.4360006209	0.1699419249	0.0339616257	-0.0267313665	-0.0439351214	-0.0480864778	-0.0489511409	-0.0508747428	-0.0459028956	-0.0205379373	0.0163791859	0.0628395981	0.1087723172	0.1317483132	0.1003501293	0.0471136434	0.0031201194	1	1	0	0	0
1	0.5284414867	1	0.5346665134	1	0.6146859617	0	0.5505214477	2	0.8638888889	0.9	0.8388888889	0.9180555556	1	-0.0361111111	-0.025	2.0020686974	0.9929753336	-0.0032067809	-0.0141046221	0.3129385088	0.6762516967	0.4165877177	0.1268907433	0.0153610702	-0.0134330647	-0.0219240317	-0.02105773	-0.0267746684	-0.0292211815	-0.0382678374	-0.009381763	0.0100317322	0.0529060056	0.1027733043	0.109371792	0.0699798981	0.0232667274	-0.013324746	1	1	0	0	0
1	0.5270568766	1	0.5388106603	1	0.6083376761	1	0.5505214477	2	0.8388888889	0.8638888889	0.9194444444	0.9180555556	1	-0.025	0.0805555556	2.2780581994	0.9969831521	-0.000476688	-0.0090134532	0.3520904634	0.7233367301	0.4090382798	0.0343944752	-0.0190867753	-0.0424212225	-0.0476325013	-0.0485620514	-0.0556496722	-0.0567728223	-0.0335504128	0.0092951007	0.0460974834	0.1216641992	0.1644869608	0.1757224934	0.1326850184	0.0606811125	0.0343078986	1	1	0	0	0
1	0.5263644141	1	0.5332840383	1	0.6062050089	1	0.5512087053	2	0.9194444444	0.8388888889	0.9833333333	0.9180555556	1	0.0805555556	0.0638888889	2.7157396099	0.9929179302	-0.0462488352	-0.0496211974	0.3466880985	0.6980537745	0.3109043351	-0.0147328511	-0.0685351347	-0.0774791749	-0.0771345637	-0.0625590351	-0.0652779925	-0.0635086252	-0.0363853804	-0.0188268621	0.026947885	0.0800846738	0.1390652481	0.1638755423	0.1290007141	0.066054656	0.018458645	1	1	0	0	0
1	0.5277492351	1	0.5353575526	1	0.6090971051	1	0.5546420091	2	0.9833333333	0.9194444444	0.9916666667	0.9180555556	1	0.0638888889	0.0083333333	2.3706609883	0.9982617533	-0.0325764349	-0.0285067467	0.3760712601	0.7368617241	0.4325899689	0.0857655531	-0.0240030132	-0.0547208034	-0.0553904629	-0.0586732161	-0.0538134572	-0.0454272084	-0.0267963256	-0.0061968406	0.0196715758	0.0836143284	0.1418689192	0.1622725934	0.1088579554	0.0448649844	0.0077351544	1	1	0	0	0
1	0.5291336291	1	0.5395008458	1	0.6147658514	0	0.5560138905	2	0.9916666667	0.9833333333	0.95	0.9180555556	1	0.0083333333	-0.0416666667	1.9975083457	0.9994305187	-0.0160325973	-0.0201047543	0.3986842576	0.7596582337	0.4971902686	0.1629687173	0.0106600111	-0.0443460153	-0.0502479975	-0.0636380997	-0.0687292264	-0.0653858711	-0.0459461336	-0.0200831036	0.0215775078	0.0786205547	0.1300233084	0.1372161443	0.1058594749	0.041599309	0.0065001684	1	1	0	0	0
1	0.5284414867	1	0.5381203259	1	0.6110950874	0	0.5512087053	2	0.95	0.9916666667	0.9194444444	0.9180555556	1	-0.0416666667	-0.0305555556	1.8609747312	0.9993824926	-0.0135197237	-0.0194983156	0.4208582975	0.7598048131	0.4727509874	0.1400637822	-0.0035751292	-0.050982799	-0.0626669495	-0.0711656804	-0.0663998189	-0.058694805	-0.0507450728	-0.0237431528	0.0140396364	0.066637105	0.125696718	0.1517906265	0.1169011017	0.0554120703	0.0168124214	1	1	0	0	0
1	0.5298256594	1	0.5360484561	1	0.6066195412	1	0.5374298453	1	0.675	0.6944444444	0.7166666667	0.7134615385	1	-0.0194444444	0.0416666667	2.3601486324	0.9998689148	-0.0109705378	0.108013371	0.5409933875	0.7387029796	0.5667907604	0.2395533708	-0.0100890381	-0.1288740389	-0.1536408065	-0.1430070898	-0.1342645495	-0.1349378122	-0.1130448049	-0.0690463265	-0.0006856914	0.0699480326	0.0910171662	0.0730422167	0.0410201886	0.0169446148	0.0093054651	1	1	0	0	0
1	0.5312093734	2	0.5374298453	1	0.6120869912	0	0.5415704832	2	0.7166666667	0.675	0.7166666667	0.7134615385	1	0.0416666667	2.22044604925031E-016	2.6017157794	0.999935274	-0.0169446165	0.0949257736	0.5340280779	0.7475186905	0.6069649492	0.2834382096	0.0053874921	-0.131570274	-0.1617598741	-0.1541189834	-0.1454050462	-0.139551087	-0.114591782	-0.0573387846	0.0133211115	0.0712881945	0.0864738199	0.0637800802	0.0348579134	0.0137863149	-0.0038447227	1	1	0	0	0
1	0.530517575	2	0.5401908798	1	0.6106461566	0	0.5415704832	2	0.7166666667	0.7166666667	0.7361111111	0.7134615385	1	2.22044604925031E-016	0.0194444444	2.3934776649	0.9999822027	0.0082280447	0.1940075281	0.6137869915	0.7599954232	0.6093106153	0.3059997256	0.0452244282	-0.1014981905	-0.14828034	-0.1546687928	-0.1433908778	-0.1391668864	-0.1285850572	-0.0914300102	-0.0399444582	0.0340507443	0.074698359	0.069631222	0.0332924439	0.0105787571	0.0038202271	1	1	0	0	0
1	0.5312093734	2	0.5395008458	1	0.6149070882	0	0.5443277579	2	0.7361111111	0.7166666667	0.7305555556	0.7134615385	1	0.0194444444	-0.0055555556	2.4302499722	0.9999552603	-0.0212530772	0.1325327478	0.5683180006	0.7510841415	0.5972239686	0.3005518269	0.0559962166	-0.1053744741	-0.1553141077	-0.1538320693	-0.1422633838	-0.1332063287	-0.117877246	-0.0777173319	-0.0193926971	0.0521627288	0.0935665757	0.0833618673	0.0526511583	0.0210572556	0.005632367	1	1	0	0	0
1	0.530517575	2	0.5395008458	1	0.6096760874	1	0.5415704832	2	0.7305555556	0.7361111111	0.7388888889	0.7134615385	1	-0.0055555556	0.0083333333	2.3247123327	0.9999226413	0.0008815968	0.1548839248	0.5790946932	0.7443358496	0.5641754651	0.2512672788	0.0197843673	-0.1135282797	-0.1427192229	-0.1364041448	-0.1273083944	-0.1216427136	-0.0960905073	-0.05462903	0.016748783	0.0864738335	0.1020071432	0.0822917601	0.0484498615	0.0190989488	0.0114602691	1	1	0	0	0
1	0.5312093734	2	0.5388106603	1	0.6142871585	0	0.5408807599	2	0.7388888889	0.7305555556	0.7083333333	0.7134615385	1	0.0083333333	-0.0305555556	2.2998876237	0.999940879	-0.0193926889	0.0977401097	0.5197349139	0.7494142209	0.6168304238	0.3051560529	0.0647799852	-0.0894626233	-0.1478012938	-0.1455968123	-0.136187824	-0.1303186765	-0.1366685101	-0.0904585535	-0.0182176524	0.0557765025	0.0792749522	0.0550929234	0.0302589096	0.0128314216	-5.83858295044593E-010	1	1	0	0	0
1	0.5312093734	2	0.5415704832	1	0.6109443244	0	0.5401908798	2	0.7083333333	0.7388888889	0.7111111111	0.7134615385	1	-0.0305555556	0.0027777778	2.185307644	0.9999686696	-0.0216447194	0.1330138895	0.5711628111	0.7561625871	0.6125644736	0.3112065	0.0480589381	-0.1078197387	-0.1558159322	-0.1568671027	-0.1444700516	-0.1314018151	-0.1154617017	-0.0848207923	-0.0342708803	0.024679704	0.0879319869	0.1025887221	0.0739190544	0.0412157809	0.0212285932	1	1	0	0	0
1	0.5319010518	2	0.5374298453	1	0.614636184	0	0.5422600473	2	0.7111111111	0.7083333333	0.7138888889	0.7134615385	1	0.0027777778	0.0027777778	2.3680484333	0.9999439967	-0.0166508336	0.0962846121	0.5270602531	0.7472159944	0.6166483387	0.3040674462	0.0394554434	-0.115147591	-0.1664304442	-0.1671684731	-0.1584909393	-0.1523971942	-0.1298371997	-0.0921099032	-0.0284972303	0.0427802989	0.0824863396	0.0706059736	0.0391620438	0.0114602656	0.0050936388	1	1	0	0	0
1	0.5319010518	2	0.5381203259	1	0.6159491622	0	0.5436386872	2	0.7138888889	0.7111111111	0.6972222222	0.7134615385	1	0.0027777778	-0.0166666667	2.3151208973	0.9999376321	-0.0177280223	0.1004559223	0.5340280705	0.7432088602	0.602428989	0.3172098219	0.067486351	-0.1066577841	-0.1651920216	-0.1683346421	-0.1545970824	-0.1501957948	-0.1279106557	-0.0886123326	-0.0240923253	0.056948225	0.0953140338	0.0827781786	0.0538232781	0.0231867267	0.0099910893	1	1	0	0	0
1	0.530517575	2	0.5360484561	1	0.6096344731	1	0.5395008458	1	0.6972222222	0.7138888889	0.6972222222	0.7134615385	1	-0.0166666667	8.88178419700125E-016	2.2556236855	0.9999185028	-0.0161612092	0.1248261244	0.5613810971	0.7416261571	0.5760265479	0.2703919438	0.0132476569	-0.1289703757	-0.1580373041	-0.1507941656	-0.1345771668	-0.1275011155	-0.1027825524	-0.0647555863	-0.0082280432	0.0468861387	0.0990981965	0.0954111105	0.0655359144	0.0400422554	0.0230154078	1	1	0	0	0
1	0.5298256594	1	0.5374298453	1	0.6081369808	1	0.5401908798	2	0.6972222222	0.6972222222	0.7388888889	0.7134615385	1	8.88178419700125E-016	0.0416666667	2.4666489267	0.9999476764	-0.0202005049	0.1197121383	0.5595671335	0.7532534889	0.6025537839	0.2540870878	-0.0043099994	-0.1292593357	-0.1614736902	-0.1572731428	-0.1486635178	-0.1500043064	-0.1347454744	-0.1015224263	-0.0411179776	0.0259523001	0.0700211445	0.0754775886	0.0470571798	0.0252915373	0.0024488765	1	1	0	0	0
1	0.5312093734	2	0.5388106603	1	0.6190751421	0	0.5463939414	2	0.7472222222	0.7333333333	0.7166666667	0.725462963	1	0.0138888889	-0.0305555556	2.3266974712	0.9999656001	0.0049811315	0.130105146	0.540292155	0.7466002221	0.6371992844	0.3464163052	0.0744338274	-0.0839713837	-0.1398143591	-0.1505656055	-0.1372404967	-0.1206582323	-0.130630619	-0.0956368307	-0.0461584067	0.0096704553	0.0449460056	0.0507884822	0.0424480537	0.0157440529	0.006414686	1	1	0	0	0
1	0.530517575	2	0.5408807599	1	0.6110114801	0	0.5422600473	2	0.7166666667	0.7472222222	0.7416666667	0.725462963	1	-0.0305555556	0.025	2.2368706301	0.9999366122	-0.0310676299	0.1237219943	0.5691989052	0.7477165404	0.5800700952	0.2891208104	0.0334221263	-0.1053541562	-0.141814962	-0.1436716176	-0.1364536715	-0.1346647859	-0.1420054371	-0.1014118192	-0.0376932259	0.0288584691	0.0754727826	0.0669631864	0.0353636989	0.0143836577	0.0047624549	1	1	0	0	0
1	0.5319010518	2	0.5401908798	1	0.6144216597	0	0.5422600473	2	0.7416666667	0.7166666667	0.7166666667	0.725462963	1	0.025	-0.025	2.4083829713	0.9999515028	-0.016618564	0.12577913	0.5490250262	0.7464711419	0.60872205	0.3222460298	0.0707357569	-0.0920723529	-0.1460980277	-0.1482850492	-0.1412434852	-0.1285521635	-0.1352134786	-0.1002573636	-0.0295382466	0.0456492082	0.0946736929	0.0834888315	0.0478797704	0.0262119458	0.0082612583	1	1	0	0	0
1	0.5319010518	2	0.5401908798	1	0.6202005892	0	0.5470823178	2	0.7166666667	0.7416666667	0.7027777778	0.725462963	1	-0.025	-0.0138888889	2.1710627557	0.9999733408	-0.0078725203	0.1371451371	0.5560470633	0.751421373	0.6303372012	0.355619719	0.1028304689	-0.0864800776	-0.1460029086	-0.1508268227	-0.1396714398	-0.1280742059	-0.1204187771	-0.0742163323	0.0033045775	0.0710258804	0.0985251632	0.0695751707	0.0404104838	0.0144808188	-0.0076781414	1	1	0	0	0
1	0.5312093734	2	0.5353575526	1	0.6145736082	0	0.5401908798	2	0.7027777778	0.7166666667	0.675	0.725462963	1	-0.0138888889	-0.0277777778	2.1979615859	0.9998325166	-0.0037905201	0.1043929217	0.5164585729	0.7307507691	0.5722136104	0.250284401	-0.0094275033	-0.133089845	-0.1599557425	-0.1552167592	-0.1518002499	-0.1537936607	-0.1357143786	-0.1014118244	-0.0468130476	0.0118570558	0.0600903148	0.0688013449	0.0471039772	0.0277901915	0.0110796083	1	1	0	0	0
1	0.5312093734	2	0.5367392212	1	0.6080124812	1	0.5381203259	1	0.675	0.7027777778	0.7083333333	0.725462963	1	-0.0277777778	0.0333333333	2.2889017751	0.9998423257	-0.0018466797	0.1056424912	0.5386900964	0.7296164336	0.5610623279	0.2620448447	0.0036933356	-0.1244636453	-0.1510405224	-0.1395523001	-0.1305589643	-0.1260660873	-0.1035276224	-0.0649309893	-0.0021382499	0.0557312852	0.0845504231	0.0748929179	0.0437092293	0.0279844356	0.0109824327	1	1	0	0	0
1	0.5312093734	2	0.5374298453	1	0.6097471651	1	0.5388106603	1	0.7083333333	0.675	0.7166666667	0.725462963	1	0.0333333333	0.0083333333	2.5769262279	0.9998975123	-0.0035961399	0.1123651803	0.5113804461	0.733322003	0.6043600696	0.3027773272	0.0465705929	-0.1022774905	-0.1458840078	-0.1432432536	-0.1344739225	-0.131991746	-0.1472392587	-0.109389217	-0.0544715966	0.0080668922	0.0578626454	0.0601871602	0.0394401082	0.0151610332	0.0092331261	1	1	0	0	0
1	0.5312093734	2	0.5401908798	1	0.6111758907	0	0.5422600473	2	0.7166666667	0.7083333333	0.75	0.725462963	1	0.0083333333	0.0333333333	2.4817356417	0.9999424372	-0.0144808202	0.1366682876	0.5482097446	0.7364511998	0.610249259	0.3186484977	0.0568939066	-0.1136605333	-0.1621095556	-0.1650419348	-0.1477384274	-0.1384085088	-0.1264486603	-0.0939030556	-0.0324512372	0.0438062357	0.0885055152	0.0822340003	0.0482676526	0.029999504	0.0176630898	1	1	0	0	0
1	0.5312093734	2	0.5395008458	1	0.6134127462	0	0.5450166589	2	0.75	0.7166666667	0.7611111111	0.725462963	1	0.0333333333	0.0111111111	2.5501095527	0.9998995011	-0.0110067231	0.1480949281	0.5711012733	0.7291615787	0.5666309211	0.2738178787	0.0282757781	-0.1162021396	-0.155382745	-0.1478097316	-0.1297229263	-0.12446364	-0.1173525523	-0.0947700193	-0.041962953	0.0302179882	0.0800132573	0.0906989132	0.061446003	0.0323784294	0.0165699845	1	1	0	0	0
1	0.5312093734	2	0.5408807599	1	0.6152547147	0	0.5450166589	2	0.7611111111	0.75	0.7361111111	0.725462963	1	0.0111111111	-0.025	2.3168078418	0.9999706251	-0.011565512	0.1837239717	0.5935785482	0.7443548972	0.606315182	0.3291315369	0.0838990176	-0.088770693	-0.1517290258	-0.1526784471	-0.1389804485	-0.1362867485	-0.1277873892	-0.0976588346	-0.0489464001	0.0193391005	0.0792406359	0.0928432503	0.0664793728	0.0372564691	0.0172015607	1	1	0	0	0
1	0.5194346481	1	0.5270568766	0	0.5916767986	1	0.5388106603	1	0.1472222222	0.8694444444	1.0222222222	0.5462418301	1	-0.7222222222	0.875	1.4937797378	0.9458116383	0.1774440568	0.328976853	0.4210386804	0.4577441012	0.2966829424	-0.0364501423	-0.0421536806	-0.009564628	-0.0260319669	-0.0365827887	-0.073398139	-0.094963723	-0.6709602493	-0.2785881843	-0.0776910333	-0.0199243105	-0.0278904836	-0.0507037659	0.0034539787	-0.0542144897	-0.029416964	1	1	0	0	0
0	0.5649094079	2	0.5	2	0.6392832333	0	0.5518957673	2	1.0222222222	0.1472222222	0.8416666667	0.5462418301	2	0.875	-0.1805555556	80.9883077774	0.9999681021	-0.1027907475	-0.0428167204	0.0741248138	0.2735565911	0.1216135915	-0.0092989824	-0.4874525085	-0.7470842444	-0.624763084	-0.2785881843	-0.0858723652	-0.0512337667	-0.029416964	0.0167370503	0.0956219207	0.1422372002	0.1889986869	0.2195484691	0.1907914747	0.1673901826	0.1277602821	1	1	0	0	0
1	0.5662743942	2	0.5173541374	0	0.7968543568	0	0.5463939414	2	0.8416666667	1.0222222222	0.1444444444	0.5462418301	1	-0.1805555556	-0.6972222222	0.7908186605	0.9999716963	-0.0446066963	-0.0092989618	0.0700940995	0.2427476888	0.0031882882	-0.0214513803	-0.3442892888	-0.7292859134	-0.6833313952	-0.4261076996	-0.1513360016	-0.005845159	-0.0634152877	0.0716141548	0.0276249843	0.1058786547	0.0966748691	0.2856798763	0.1766719747	0.1722927145	0.1184712404	1	1	0	0	0
0	0.5180477114	1	0.5	2	0.5963169731	1	0.5367392212	1	0.1444444444	0.8416666667	0.8305555556	0.5462418301	1	-0.6972222222	0.6861111111	1.1967306046	0.8952606435	0.2007562361	0.2875698223	0.3841468183	0.4334724919	0.2697422723	-0.0220489069	-0.0162058211	-0.0657965254	-0.1208936847	-0.0596434946	-0.0289523819	-0.0432808166	-0.7105084403	-0.32779165	-0.0831684454	-0.1089645146	-0.0318722997	0.1003584612	0.0067750591	-0.0576576648	0.0148776752	1	1	0	0	0
0	0.5649094079	2	0.5	2	0.7724769773	0	0.5436386872	2	0.8305555556	0.1444444444	0.1527777778	0.5462418301	3	0.6861111111	-0.6777777778	34.3226011933	0.9999905814	-0.0426178088	-0.0496436465	0.0119555936	0.1540607199	0.0116899304	-0.1900873393	-0.6064086327	-0.761594156	-0.6165965132	-0.2546496273	-0.0831684454	-0.100292702	-0.0700940977	0.0956219226	0.1580138708	0.1385908544	0.2330976867	0.2667834245	0.274908023	0.1398935572	0.239682346	1	1	0	0	0
1	0.5166604966	1	0.5457053876	1	0.7211845255	0	0.5751214269	2	0.1527777778	0.8305555556	0.2861111111	0.5462418301	1	-0.6777777778	0.1333333333	0.3352291591	0.8517547444	0.1789875846	0.2211284388	0.3550748004	0.4382073674	0.3753930749	0.0652674356	-0.1079142405	-0.0477882138	-0.0159401976	-0.0602391533	-0.0979907464	-0.0687059218	-0.2937118096	-0.0663255782	-0.0355877325	0.0156745781	0.0918690907	0.1771867163	0.3764197395	0.2286330032	0.1510763794	1	1	0	0	0
0	0.5662743942	2	0.5	2	0.6433745075	0	0.5346665134	1	0.2861111111	0.1527777778	0.7833333333	0.5462418301	2	0.1333333333	0.4972222222	29.993256618	0.9995767536	-0.0687059218	-0.1328532972	-0.0116235077	0.1250151032	0.0108929815	-0.1593736121	-0.3144474463	-0.6453682684	-0.6030802706	-0.2937118096	-0.1208282241	-0.1014103941	0.1074546677	0.0278904637	0.3980993082	0.2170181435	0.2670301798	0.2369256964	0.0898269588	0.1681648282	0.0979249595	1	1	0	0	0
0	0.5457053876	2	0.5	2	0.6101342642	1	0.5256718502	0	0.7833333333	0.2861111111	0.9361111111	0.5462418301	2	0.4972222222	0.1527777778	18.4074161288	0.9348354833	0.1567831002	0.0414242958	0.0278904637	0.4003327869	0.2699886143	0.2109335074	0.2798130639	0.2220758486	0.0898269588	0.1401540346	0.1450994922	0.0611656518	-0.0758421266	-0.1526337797	-0.1482192168	-0.0204554562	0.043015623	-0.0111586169	-0.0530885325	-0.0525586316	-0.0355877554	1	1	0	0	0
0	0.5669565118	2	0.5	2	0.7950345543	0	0.5608086203	2	0.9361111111	0.7833333333	0.15	0.5462418301	2	0.1527777778	-0.7861111111	1.6315321567	0.9995635584	-0.0491135396	-0.1287402335	-0.0138151153	0.1560055372	0.1252112453	0.0729356853	-0.2954103088	-0.6375501349	-0.6594069229	-0.2910390573	-0.1116547314	-0.0956219238	-0.0331993667	0.0669868725	0.0223144561	0.1956511402	0.2324065957	0.2795681465	0.2812817369	0.1722927072	0.1119170812	1	1	0	0	0
0	0.5152730249	1	0.5	2	0.5846199947	1	0.5298256594	0	0.15	0.9361111111	0.8888888889	0.5462418301	1	-0.7861111111	0.7388888889	1.0562700494	0.7693384883	0.1980136127	0.3208972054	0.3289176391	0.4056737664	0.2084569539	-0.0642090878	-0.0616288459	-0.1172267279	-0.0696975218	-0.0710855008	-0.1161129296	-0.0620920812	-0.6479961472	-0.3654213408	-0.1474395886	-0.0055794968	0.0599744289	0.0104280461	-0.0227791978	-0.0200570945	0.0185299182	1	1	0	0	0
0	0.5649094079	2	0.5	2	0.7820246741	0	0.548458528	2	0.8888888889	0.15	0.1583333333	0.5462418301	3	0.7388888889	-0.7305555556	36.3519760739	0.9997250352	-0.0724732057	-0.0451370487	0.1229876112	0.3405366255	0.2699270215	0.0694330848	-0.489677496	-0.683189735	-0.4937066456	-0.2139779237	-0.0636799243	0.0567969874	-0.020986637	0.0316068603	0.2111873523	0.2005012298	0.1928387997	0.2565741942	0.2050233757	0.0803973449	0.1100801638	1	1	0	0	0
0	0.5166604966	1	0.5	2	0.5850129621	1	0.5325926076	1	0.1583333333	0.8888888889	1.0388888889	0.5462418301	1	-0.7305555556	0.8805555556	1.4630334337	0.8839707616	0.1653234753	0.3094108272	0.4171509854	0.4463287333	0.2977729331	0.0175338971	0.0249035059	-0.0102952238	-0.035057034	-0.0308105743	-0.0308105719	-0.0731338872	-0.7024575106	-0.463291706	-0.1701005151	-0.0331993505	0.0207210484	0.0129517875	0.0069078942	-0.0417558424	-0.0034539892	1	1	0	0	0
0	0.5655920254	2	0.5	2	0.7879647701	0	0.5131913825	0	1.0388888889	0.1583333333	0.2888888889	0.5462418301	2	0.8805555556	-0.75	46.4534058001	0.9999366399	-0.0784172118	-0.0450707371	0.1132943046	0.3456937194	0.2297029107	0.0366491516	-0.4237127492	-0.7166372999	-0.6352579239	-0.3305160663	-0.1014104121	0.001527733	-0.1160473878	-0.1411957845	-0.1536716269	-0.1542552609	-0.1426927262	-0.1322659999	-0.1327880526	-0.1552277476	-0.1686811419	1	1	0	0	0
1	0.5649094079	2	0.5180477114	0	0.7744509924	0	0.5312093734	1	0.2888888889	1.0388888889	0.15	0.5462418301	1	-0.75	-0.1388888889	0.1681944205	0.999848434	-0.0473243043	0.023376681	0.1186677149	0.2807311477	0.0954244771	-0.0543469314	-0.4649073144	-0.7095862688	-0.5800715821	-0.322207399	-0.1333100375	-0.0393022291	0.0850810906	0.03711347	0.1900233065	0.0927252355	0.3345923991	0.3118114173	0.1050247639	0.1516604981	0.1766076244	1	1	0	0	0
0	0.5284414867	1	0.5	2	0.6240593132	0	0.5208212854	0	0.15	0.2888888889	0.5972222222	0.5462418301	1	-0.1388888889	0.4472222222	4.763253648	0.8412502546	0.1058129842	0.1866918501	0.117161223	0.4027841427	0.2033683995	0.0906175574	0.1875251172	0.1525689092	0.0921983962	0.1046963027	-0.0581210697	0.0123540729	-0.1691328447	-0.1293281077	-0.0266957504	-0.0003985377	-0.0310096528	-0.0440763788	-0.0284878076	-0.0726713954	-0.0839599556	1	1	0	0	0
0	0.5222076019	1	0.5	2	0.6155095607	0	0.5730838567	2	1.0722222222	1.0277777778	1.1166666667	1.0595679012	1	0.0444444444	0.0444444444	2.1045005956	0.9999930449	0.1480045847	0.526055445	0.6708277648	0.7354521084	0.5082767903	-0.213148135	-0.3954456027	-0.240554232	-0.1447730219	-0.144611363	-0.1549013349	-0.161059383	-0.0904011743	-0.0245148057	0.0433982178	0.0982561825	0.1184893641	0.1027918413	0.0552574999	-0.0046232162	-0.0652928876	1	1	0	0	0
0	0.5235935763	1	0.5	2	0.6175149517	0	0.5751214269	2	1.1166666667	1.0722222222	1.1138888889	1.0595679012	1	0.0444444444	-0.0027777778	1.9296901251	0.9999508906	0.135546372	0.4780756047	0.5974639574	0.6590150647	0.5305785129	-0.042079704	-0.4300948533	-0.3330440369	-0.1841266279	-0.150103395	-0.1536521508	-0.1603757621	-0.1029143621	-0.0119290687	0.0698539413	0.1311675431	0.1414979442	0.1176345924	0.0739604712	0.0144879124	-0.0575617659	1	1	0	0	0
0	0.5249791875	1	0.5	2	0.6079417078	1	0.5614926774	2	1.1138888889	1.1166666667	1.0916666667	1.0595679012	1	-0.0027777778	-0.0222222222	1.7003776641	0.9999866057	0.0818789139	0.4352282305	0.6337666092	0.7018750703	0.5826938853	0.004994716	-0.3985751307	-0.2872419137	-0.1381387603	-0.1083840002	-0.1062622119	-0.1237768725	-0.0828218856	-0.0359797494	0.0435630259	0.1094037356	0.0920795437	0.1571164389	0.1627476642	0.0858548023	0.058055453	1	1	0	0	0
0	0.521514485	1	0.5	2	0.6207470764	0	0.5744425168	2	1.0916666667	1.1138888889	1.0527777778	1.0595679012	1	-0.0222222222	-0.0388888889	1.6570787746	0.9999976034	0.1799758965	0.5221932726	0.6759265901	0.7558242508	0.5811924324	-0.1828501626	-0.4409322377	-0.2685015895	-0.1101785779	-0.1256461692	-0.1193032653	-0.1274333655	-0.0849942599	-0.0795823502	-0.0042104237	0.0085445406	0.0303719839	0.0335059773	0.0491648725	0.0201001563	-0.0411319327	1	1	0	0	0
0	0.521514485	1	0.5	2	0.6247647281	0	0.5751214269	2	1.0527777778	1.0916666667	0.9833333333	1.0595679012	1	-0.0388888889	-0.0694444444	1.644643855	0.9999924312	0.2280703972	0.5596985456	0.6658945299	0.7231841512	0.5325922751	-0.1764587274	-0.4314396184	-0.3015679966	-0.1838075641	-0.1653987159	-0.1698920258	-0.1914540723	-0.133844126	-0.0750277786	-0.0061092143	0.0501531378	0.1085471705	0.0933481768	0.0642652438	0.0276086204	-0.0386179092	1	1	0	0	0
0	0.521514485	1	0.5	2	0.6063349152	1	0.5614926774	2	0.9833333333	1.0527777778	1.0194444444	1.0595679012	1	-0.0694444444	0.0361111111	1.7696322413	0.9930238847	0.0911380807	0.3397432158	0.4274333092	0.4807461034	0.1705333533	-0.38283583	-0.4102452949	-0.2088885326	-0.1025059317	-0.0813868662	-0.0637308194	-0.0715379103	-0.0281448385	0.0089160254	0.0327225527	0.0922432438	0.1157208895	0.1422260122	0.1062214055	0.0410907245	0.0486295363	1	1	0	0	0
0	0.5235935763	1	0.5	2	0.5933953615	1	0.5436386872	2	1.0194444444	0.9833333333	1.0583333333	1.0595679012	1	0.0361111111	0.0388888889	2.1883559718	0.999992119	0.0667313676	0.4315739817	0.6567674604	0.7308704887	0.5367193256	-0.2421092282	-0.4057033959	-0.2203865428	-0.1240207539	-0.1223946573	-0.1251586193	-0.1502647895	-0.1152321401	-0.0785978594	-0.0606880015	-0.0089572986	0.0238134716	0.0312792721	0.0583845758	0.0254223787	0.0560393755	1	1	0	0	0
0	0.5249791875	1	0.5	2	0.6329020508	0	0.548458528	2	0.725	0.7138888889	0.7166666667	0.7085470085	1	0.0111111111	-0.0083333333	2.3800940297	0.9964190659	-0.013266153	0.0661083753	0.4106050428	0.6702423141	0.2650768664	-0.3311877643	-0.259604126	-0.1455432686	-0.1217765815	-0.1239898135	-0.1374121782	-0.1343581704	-0.2513638244	-0.2131024437	-0.0819238708	0.0430584218	0.0923881122	0.0932449532	0.0557754534	0.0243683103	0.0041486133	1	1	0	0	0
0	0.5263644141	1	0.5	2	0.6290348854	0	0.5436386872	2	0.7166666667	0.725	0.7083333333	0.7085470085	1	-0.0083333333	-0.0083333333	2.2734583042	0.9980968712	-0.0063524899	0.0670548736	0.4376778283	0.6791410856	0.3456897294	-0.2748526432	-0.3130626976	-0.182042665	-0.1192213771	-0.1154708489	-0.1258616192	-0.1440201806	-0.2592816965	-0.2170591613	-0.164269574	-0.0304569311	0.0867723844	0.1270948186	0.0898167058	0.0523283712	0.038183219	1	1	0	0	0
0	0.5256718502	1	0.5	2	0.6277864404	0	0.5443277579	2	0.7083333333	0.7166666667	0.7138888889	0.7085470085	1	-0.0083333333	0.0055555556	2.312723649	0.9962462344	-0.0245841882	0.0546121797	0.3785018026	0.6710269955	0.2759708648	-0.3102534769	-0.2869530617	-0.1860507582	-0.167463537	-0.1802036071	-0.184882358	-0.1927170807	-0.3113465592	-0.2901223778	-0.18438146	-0.0453874325	0.0404269102	0.0645162353	0.026829903	0.027823112	-0.0049696374	1	1	0	0	0
0	0.5256718502	1	0.5	2	0.630330368	0	0.5463939414	2	0.7138888889	0.7083333333	0.7111111111	0.7085470085	1	0.0055555556	-0.0027777778	2.3680484333	0.9986604275	-0.0056178389	0.0741067527	0.4578876941	0.7118235788	0.3495270112	-0.2236377362	-0.2658802135	-0.166119117	-0.1110341842	-0.1251810828	-0.1227982577	-0.1455432948	-0.2341210446	-0.2131024555	-0.137072993	-0.0178457655	0.0761263662	0.1358855335	0.1089850016	0.0721294867	0.0456030899	1	1	0	0	0
0	0.5263644141	1	0.5	2	0.6482824696	0	0.5608086203	2	0.7111111111	0.7138888889	0.7138888889	0.7085470085	1	-0.0027777778	0.0027777778	2.3358380741	0.9970576983	-0.0137414135	0.0300683292	0.4034299949	0.6996565348	0.3570156238	-0.2046713407	-0.1842144388	-0.1506153077	-0.1502774074	-0.1445279118	-0.1666233289	-0.1822097799	-0.3110343081	-0.2315051862	-0.0298956291	0.1142767899	0.0934591005	0.0716135815	0.0369748746	-0.0126180156	-0.0364570514	1	1	0	0	0
0	0.5256718502	1	0.5	2	0.6369637455	0	0.5505214477	2	0.7138888889	0.7111111111	0.6972222222	0.7085470085	1	0.0027777778	-0.0166666667	2.3151208973	0.998105967	-0.0646023131	0.0330903392	0.3872422359	0.7068424035	0.4355442461	-0.1802036071	-0.1965422146	-0.158208441	-0.1292625097	-0.1346976187	-0.1538235258	-0.153485969	-0.2872703049	-0.2417853225	-0.1265420228	0.0237636191	0.0855284954	0.0692055781	0.056292401	0.0115810325	-0.0017285718	1	1	0	0	0
0	0.5256718502	1	0.5	2	0.6298473455	0	0.5457053876	2	0.6972222222	0.7138888889	0.7166666667	0.7085470085	1	-0.0166666667	0.0194444444	2.3067628946	0.9961724136	-0.0140438716	0.0574554278	0.41776521	0.6823872856	0.2780456081	-0.2655588968	-0.2206798409	-0.1492635326	-0.1346976349	-0.1501084764	-0.1445279501	-0.1595564189	-0.2570230003	-0.2132674305	-0.1436815912	-0.0009939268	0.0611157411	0.1016772934	0.0649034672	0.03904618	0.0300683262	1	1	0	0	0
0	0.5256718502	1	0.5	2	0.6411455683	0	0.5539557547	2	0.7166666667	0.6972222222	0.6777777778	0.7085470085	1	0.0194444444	-0.0388888889	2.3512697082	0.9951188931	-0.0269162452	0.0469398323	0.3952938835	0.6711932794	0.2578300118	-0.2864770836	-0.2383644954	-0.1341884203	-0.0990677362	-0.1127411074	-0.1117170212	-0.1416494919	-0.2339575841	-0.1768565914	-0.0626654715	0.0733760909	0.1301123189	0.0917025298	0.056292401	0.0188394065	0.0091612923	1	1	0	0	0
0	0.5256718502	1	0.5	2	0.6246365722	0	0.5436386872	2	0.6777777778	0.7166666667	0.7055555556	0.7085470085	1	-0.0388888889	0.0277777778	2.2122328753	0.9938953814	-0.0195305369	0.0569815866	0.3947468153	0.6451666069	0.2719737599	-0.2890138948	-0.2594429502	-0.154498556	-0.1489255206	-0.1526419433	-0.1671274777	-0.1582084611	-0.2490954004	-0.2066579309	-0.1590509974	0.011883481	0.1072766313	0.149094541	0.1117170802	0.0707536762	0.0735050207	1	1	0	0	0
0	0.5249791875	1	0.5	2	0.6269052747	0	0.5457053876	2	0.7055555556	0.6777777778	0.6972222222	0.7085470085	1	0.0277777778	-0.0083333333	2.4932353934	0.999260285	-0.0419799873	0.0890022112	0.4709364484	0.7224642035	0.3752019238	-0.247797846	-0.2850484546	-0.2122772763	-0.1103512117	-0.12773245	-0.1216062807	-0.1216062929	-0.2504729593	-0.1968745957	-0.1396162583	-0.0423681846	0.1362672494	0.2471893376	0.2434122141	0.1560167722	0.1173465731	1	1	0	0	0
0	0.5263644141	1	0.5	2	0.6300881845	0	0.5457053876	2	0.6972222222	0.7055555556	0.7138888889	0.7085470085	1	-0.0083333333	0.0166666667	2.3470664772	0.9992746534	-0.09452999	0.0158152618	0.4177652432	0.7293734196	0.4192266836	-0.2353460735	-0.2934434056	-0.1903858669	-0.1392772622	-0.1561854166	-0.1642695659	-0.1842145105	-0.3080647452	-0.2860010529	-0.1870935713	-0.0145191425	0.0260957211	0.0971845355	0.0733330201	0.0485350993	0.0456030159	1	1	0	0	0
1	0.5256718502	1	0.5388106603	1	0.6341455482	0	0.5491463565	2	0.7194444444	0.6861111111	0.7027777778	0.7096153846	1	0.0333333333	-0.0166666667	2.4963355152	0.998657386	-0.0218241747	0.0882575171	0.4767439201	0.7085126567	0.3438169069	-0.2461746719	-0.2313736624	-0.1635256622	-0.1395647419	-0.138217809	-0.1612332946	-0.1600864519	-0.2795942444	-0.2459903808	-0.1368703784	0.0089270284	0.0623607309	0.0991483211	0.0607481774	0.0103984013	0.0135371993	1	1	0	0	0
1	0.5256718502	1	0.5388106603	1	0.6303712279	0	0.548458528	2	0.7027777778	0.7194444444	0.7194444444	0.7096153846	1	-0.0166666667	0.0166666667	2.297242039	0.9993125784	-0.0115754817	0.0899120245	0.488706945	0.7263370818	0.3433410049	-0.2810405518	-0.2832075993	-0.164480324	-0.1407189054	-0.1412958187	-0.1482111045	-0.1621886934	-0.2814019118	-0.215716596	-0.1012849082	0.0195197653	0.0914200738	0.0921496603	0.0621163866	0.0311862052	-0.0086327743	1	1	0	0	0
1	0.5263644141	1	0.5381203259	1	0.6321723405	0	0.548458528	2	0.7194444444	0.7027777778	0.725	0.7096153846	1	0.0166666667	0.0055555556	2.4543386043	0.9988550025	-0.0169209416	0.0486200886	0.4310823132	0.7079748018	0.3334381203	-0.3061394246	-0.3231098065	-0.1944792372	-0.1652438222	-0.1681051169	-0.1593217082	-0.1692488355	-0.3000814475	-0.2354550114	-0.1026440848	0.0369675165	0.120953028	0.0973024008	0.0611391428	0.0296180861	-0.0023544256	1	1	0	0	0
1	0.5249791875	1	0.5415704832	1	0.6301317742	0	0.5477705142	2	0.725	0.7194444444	0.7222222222	0.7096153846	1	0.0055555556	-0.0027777778	2.3623728662	0.9995134262	-0.0245204944	0.1145196975	0.5204351037	0.7310986824	0.3082716415	-0.3141192938	-0.2824855687	-0.1781920139	-0.1355224756	-0.1507047657	-0.1600864975	-0.17115401	-0.2966854577	-0.2365666297	-0.1150521255	0.0711992792	0.1638121085	0.1494581728	0.1076889264	0.0564465635	0.0304021854	1	1	0	0	0
1	0.5263644141	1	0.5401908798	1	0.6336165019	0	0.5450166589	2	0.7222222222	0.725	0.6916666667	0.7096153846	1	-0.0027777778	-0.0305555556	2.2455936488	0.9996154582	-0.0293729922	0.0648033738	0.4574948781	0.7326475305	0.4755680832	-0.185401326	-0.299188459	-0.2470960535	-0.159321715	-0.1387952026	-0.1476353743	-0.1409112274	-0.2734334182	-0.2601302456	-0.154537438	-0.0305002031	0.084557504	0.144659175	0.1049731204	0.0601617491	0.0327542852	1	1	0	0	0
1	0.5256718502	1	0.5374298453	1	0.6285543383	0	0.5457053876	2	0.6916666667	0.7222222222	0.7138888889	0.7096153846	1	-0.0305555556	0.0222222222	2.2391306482	0.9995951734	-0.0154497923	0.101916009	0.4918368429	0.7454882768	0.373602192	-0.2772413331	-0.2776035582	-0.153771252	-0.1478272886	-0.1518550484	-0.1409112251	-0.1644803195	-0.2683429233	-0.2297016964	-0.1389875958	0.000294302	0.0405428421	0.0921496603	0.0617255452	0.0335382337	0.025108816	1	1	0	0	0
1	0.5249791875	1	0.5381203259	1	0.6346907879	0	0.5512087053	2	0.7138888889	0.6916666667	0.7222222222	0.7096153846	1	0.0222222222	0.0083333333	2.5004941436	0.9993437253	-0.0366736077	0.0874787548	0.4509545908	0.7414517538	0.4086604878	-0.2173995966	-0.2352696017	-0.1614243799	-0.1158264523	-0.1372553971	-0.1274243661	-0.143986703	-0.271980446	-0.2162777087	-0.08494706	0.0210397209	0.092344201	0.0398572608	0.0380451345	0.0102022353	-0.0186371509	1	1	0	0	0
1	0.5256718502	1	0.5401908798	1	0.6326300591	0	0.5443277579	2	0.7222222222	0.7138888889	0.7111111111	0.7096153846	1	0.0083333333	-0.0111111111	2.3579752555	0.9992940748	0.0025015843	0.1097731561	0.5120161171	0.7338495055	0.3985597789	-0.1677237448	-0.1618065666	-0.1224027034	-0.1268452816	-0.1224026919	-0.1351372395	-0.1368704014	-0.2832075713	-0.2668856492	-0.1459075593	-0.0084856004	0.0375063484	0.0733950507	0.0331952117	0.0176564413	-0.00412029	1	1	0	0	0
1	0.5263644141	1	0.5374298453	1	0.6325874948	0	0.5463939414	2	0.7111111111	0.7222222222	0.6944444444	0.7096153846	1	-0.0111111111	-0.0166666667	2.2390060861	0.9985116896	-0.0386818035	0.0605038177	0.3988485423	0.7071174818	0.4498597312	-0.1579828804	-0.2352696857	-0.1671516619	-0.12375539	-0.1472514984	-0.1564520195	-0.1682957557	-0.31217273	-0.2889722312	-0.219081379	-0.0437255076	0.0373593682	0.0920037508	0.073638931	0.0386328114	0.0209906625	1	1	0	0	0
1	0.5270568766	1	0.5381203259	1	0.6300881845	0	0.5457053876	2	0.6944444444	0.7111111111	0.7138888889	0.7096153846	1	-0.0166666667	0.0194444444	2.3078298773	0.9983392102	-0.0110359887	0.0573754732	0.4075975546	0.6912500852	0.3938457855	-0.254634115	-0.3054279764	-0.1705825648	-0.1545373855	-0.1476353331	-0.1702015648	-0.1886201005	-0.3144729334	-0.2730703265	-0.1971207467	-0.0266283297	0.0821219914	0.1264592156	0.1061372003	0.0525341193	0.0480328709	1	1	0	0	0
1	0.5263644141	1	0.5360484561	1	0.6295208597	0	0.5470823178	2	0.7138888889	0.6944444444	0.7027777778	0.7096153846	1	0.0194444444	-0.0111111111	2.4284579956	0.9975190517	-0.030010134	0.0474945539	0.4032117492	0.6913269276	0.2923850927	-0.3082716375	-0.276697866	-0.1539627805	-0.1355224503	-0.1501294505	-0.1428337154	-0.1623797226	-0.2696169265	-0.2531656348	-0.1349446027	0.0154988372	0.08669994	0.1045850335	0.0576688416	0.0192256082	-0.0017658207	1	1	0	0	0
1	0.5256718502	1	0.533975341	1	0.6104909332	1	0.5683199835	2	1.0638888889	1.1444444444	1.0027777778	1.0694444444	1	-0.0805555556	-0.0611111111	1.4656961455	0.9974121697	0.0005072214	-0.000682131	0.4202255038	0.7417066626	0.2509184815	-0.1161695462	-0.0708051644	-0.0183629243	-0.0167193278	-0.0130996093	-0.0070660304	-0.0021688138	0.0263695107	0.0492133695	0.1001285983	0.177753648	0.2985274391	0.4372409512	0.4664116681	0.2049811414	0.0043900808	1	1	0	0	0
1	0.5263644141	1	0.5291336291	0	0.6081963806	1	0.5683199835	2	1.0027777778	1.0638888889	1.0472222222	1.0694444444	1	-0.0611111111	0.0444444444	1.7750875879	0.9870576853	0.0005771856	-0.0261947214	0.2449597621	0.6866589265	0.2780656031	-0.1172564345	-0.0678983074	-0.0190448155	-0.0172264068	-0.0154603411	-0.0074158223	-0.0016790833	0.0255305329	0.0483758239	0.0950007116	0.1703588723	0.2806456854	0.3979160215	0.4303686983	0.1847229851	-0.0067687076	1	1	0	0	0
1	0.5256718502	1	0.5312093734	1	0.6070705227	1	0.5676383757	2	1.0472222222	1.0027777778	1.0833333333	1.0694444444	1	0.0444444444	0.0361111111	2.1596032465	0.9943047045	-0.0257402744	-0.0323111261	0.3906485486	0.714619416	0.2033720609	-0.1236856604	-0.0618372496	-0.0160198927	-0.015040663	-0.0121552729	-0.0095320128	-0.0052995582	0.0153903952	0.0365737384	0.0802134862	0.1553758535	0.2761279099	0.4007974096	0.4292850058	0.1546247622	-0.0112458978	1	1	0	0	0
1	0.5263644141	1	0.5298256594	0	0.5962163681	1	0.5614926774	2	1.0833333333	1.0472222222	1.1583333333	1.0694444444	1	0.0361111111	0.075	2.0660066181	0.9958827767	-0.0009619678	-0.0192371278	0.3290198909	0.7356032431	0.2888745837	-0.103002055	-0.0582123332	-0.0196917199	-0.0128023345	-0.005876743	0.0007695747	0.0112633748	0.0339883623	0.0738847616	0.136890111	0.2478511712	0.3812412279	0.4856187568	0.4241923223	0.1497041431	5.24673908224305E-005	1	1	0	0	0
1	0.5256718502	1	0.5332840383	1	0.6164108503	0	0.5737633259	2	1.1583333333	1.0833333333	1.0027777778	1.0694444444	1	0.075	-0.1555555556	1.8043019176	0.9987136083	-0.005719313	0.0036555025	0.4443573395	0.761594156	0.2891150353	-0.1123891614	-0.0745457511	-0.0232406463	-0.0187300972	-0.0162996705	-0.0115431965	-0.0042326688	0.0193770151	0.0466307265	0.0860496522	0.1609691838	0.2913734333	0.4346910513	0.4705072811	0.1981349716	-0.0032881949	1	1	0	0	0
1	0.5256718502	1	0.5353575526	1	0.6111411598	0	0.5717240928	2	1.0027777778	1.1583333333	1.0527777778	1.0694444444	1	-0.1555555556	0.05	1.4043339423	0.9964652497	5.24692673458116E-005	-0.0104414309	0.3884230747	0.73292716	0.2544388331	-0.1172391787	-0.0922094197	-0.0326780437	-0.0194819156	-0.0161422999	-0.0087974798	0.0008395406	0.0265093336	0.0501206275	0.10165209	0.1833035343	0.32110493	0.4600927171	0.4497174383	0.1345552341	-0.0050547032	1	1	0	0	0
0	0.5263644141	1	0.5	2	0.6093256055	1	0.5669565118	2	0.9	0.9583333333	1.025	1.0185185185	1	-0.0583333333	0.125	2.0915275434	0.971727972	-0.0372558095	-0.0695780228	0.2220885562	0.6473171941	0.158734828	-0.154834455	-0.1040861907	-0.0366853544	-0.0237731589	-0.01966935	-0.0099248724	0.0005355359	0.0179205755	0.0415334272	0.076822223	0.1450627208	0.254546971	0.386169558	0.4006537351	0.1091688582	-0.0097642332	1	1	0	0	0
0	0.5256718502	1	0.5	2	0.6039274245	1	0.5642265442	2	1.025	0.9	1.0416666667	1.0185185185	1	0.125	0.0166666667	2.6467195	0.9959212001	-0.0004998197	-0.0179919402	0.350676626	0.7329184978	0.2743365615	-0.1145629272	-0.0610816915	-0.0176707282	-0.0147617634	-0.0094607881	-0.000571232	0.0035702072	0.024272714	0.0513658847	0.0934093973	0.1595699678	0.2705024706	0.4001740869	0.4577610274	0.2371043286	0.0073545181	1	1	0	0	0
0	0.5263644141	1	0.5	2	0.6100597524	1	0.5662743942	2	1.0416666667	1.025	0.9861111111	1.0185185185	1	0.0166666667	-0.0555555556	1.9206232284	0.9955449943	0.0024991504	-0.016974742	0.3221528282	0.731950357	0.2900100804	-0.1117256891	-0.0579866164	-0.0163679846	-0.0141549631	-0.0170639804	-0.0126735898	-0.0022135294	0.0217035118	0.0504400316	0.1013308168	0.194151367	0.3235439923	0.4501078368	0.4081791291	0.1203021046	-0.0058729398	1	1	0	0	0
0	0.5256718502	1	0.5	2	0.6157547478	0	0.5737633259	2	0.9861111111	1.0416666667	1.0027777778	1.0185185185	1	-0.0555555556	0.0166666667	1.8006047948	0.993524248	0.0034630995	-0.0080685111	0.3779524038	0.7133551477	0.194374676	-0.1133648071	-0.0638378087	-0.022292312	-0.0194730745	-0.0131733409	-0.0060514445	0.001071064	0.0247722389	0.0525764766	0.0995637184	0.1756007307	0.3036509358	0.4258740004	0.4533473474	0.196143234	-0.0031953331	1	1	0	0	0
0	0.5263644141	1	0.5	2	0.6151726612	0	0.5771564476	2	1.0027777778	0.9861111111	1.0861111111	1.0185185185	1	0.0166666667	0.0833333333	2.1894927153	0.9988114823	-0.0104782024	-0.0004998287	0.4216414503	0.761594156	0.3413742148	-0.1139462877	-0.083225172	-0.0233985016	-0.0179919529	-0.0169569073	-0.0089253075	-0.0016601508	0.0158504372	0.0382540527	0.0753314075	0.1377151795	0.2381149188	0.3634014733	0.4775638768	0.3333538655	0.0287858474	1	1	0	0	0
0	0.5256718502	1	0.5	2	0.6097993593	1	0.5703632449	2	1.0861111111	1.0027777778	1.0666666667	1.0185185185	1	0.0833333333	-0.0194444444	2.188935108	0.9979426308	0.0014102356	-0.0012674287	0.4182450528	0.7516745102	0.26553184	-0.1099625147	-0.0616863379	-0.0143155936	-0.0151008706	-0.0147260806	-0.0093358449	-0.0024277413	0.0190626525	0.0427451418	0.0802284928	0.1400960842	0.2471868516	0.3819694304	0.4709225417	0.2935702805	0.0370953802	1	1	0	0	0
0	0.5256718502	1	0.5	2	0.6069131641	1	0.5690013326	2	1.0666666667	1.0861111111	1.1	1.0185185185	1	-0.0194444444	0.0333333333	1.7996459763	0.9977379681	0.0009818101	-0.0033381408	0.4129434227	0.7489518383	0.2636559045	-0.1098037891	-0.0596232302	-0.0164572168	-0.0134589057	-0.0150651764	-0.0114598956	-0.0047840547	0.0190626506	0.0455244833	0.0915687623	0.1638117465	0.2882760594	0.4161218869	0.4628819321	0.2180117437	0.0010175118	1	1	0	0	0
1	0.5683199835	2	0.5152730249	0	0.6444144797	0	0.5825702065	2	1.1388888889	0.9861111111	1.0277777778	1.0336805556	1	0.1527777778	-0.1111111111	2.2975910273	0.9993028705	-0.0822794892	-0.0925472981	-0.0586686081	0.0094173151	-0.1628493364	-0.5700410435	-0.5146399781	-0.2949937668	-0.5986343685	-0.2746703364	-0.0333828806	-0.0076206707	0.0214341412	0.0356725944	0.1083707589	0.1434886429	0.2426458991	0.3226233631	0.3172843217	0.2116230446	-0.0001858724	1	1	0	0	0
1	0.5505214477	2	0.5235935763	0	0.6172875043	0	0.5717240928	2	1.0277777778	1.1388888889	1.0222222222	1.0336805556	1	-0.1111111111	-0.0055555556	1.4730945491	0.9997309555	-0.0894750679	-0.0341874161	-0.3594099606	-0.669542397	-0.3513985255	-0.4791905942	-0.5235115196	-0.1811267961	-0.0862781425	-0.0401271422	0.0004956622	0.0401271391	0.0262640938	0.0791402234	0.1284073835	0.1899807728	0.2419460612	0.2554310242	0.2257814056	0.0537276406	-0.0173464634	1	1	0	0	0
1	0.5587550723	2	0.5249791875	0	0.6211341264	0	0.5717240928	2	1.0222222222	1.0277777778	1.1277777778	1.0336805556	1	-0.0055555556	0.1055555556	2.0568485546	0.9957830596	-0.0724872555	-0.0835716578	-0.0341874142	0.0544689646	-0.1811267915	-0.5756604632	-0.3954783841	-0.2579775242	-0.5068088471	-0.172183238	-0.0639769338	-0.0183994113	0.0107802513	0.0475477613	0.0811101458	0.1799280201	0.2507919568	0.402199494	0.368011742	0.1223089842	-0.0012391577	1	1	0	0	0
1	0.5662743942	2	0.5173541374	0	0.6386517724	0	0.5532692946	2	1.1277777778	1.0222222222	0.9138888889	1.0336805556	1	0.1055555556	-0.2138888889	1.9493909692	0.9691032152	-0.0750137174	-0.0690966609	-0.0573718742	0.0099748845	-0.1794483612	-0.4532028332	-0.0855401336	-0.3949032949	-0.4102697825	-0.119073053	-0.0737814172	-0.0066293952	0.0235396389	0.0808639393	0.1259691609	0.1902196485	0.2982146691	0.3206235994	0.1856771948	0.0234157924	-0.003035927	1	1	0	0	0
0	0.5395008458	2	0.5	2	0.5816456457	0	0.548458528	2	0.9138888889	1.1277777778	1.075	1.0336805556	1	-0.2138888889	0.1611111111	1.457818719	0.7136058936	-0.5356372474	-0.1480973396	-0.0271927966	0.0031598462	0.0323307441	0.0739662843	0.0690350065	0.0867701027	0.1247494886	0.147370083	0.1493091051	0.1507626204	0.1861557361	0.236338292	0.2750140078	0.3402710268	0.394484848	0.3675831396	0.2309493521	0.060891125	-0.0014250314	1	1	0	0	0
0	0.5512087053	2	0.5	2	0.6071673465	1	0.5580701059	2	1.075	0.9138888889	0.9777777778	1.0336805556	1	0.1611111111	-0.0972222222	2.5371022507	0.9999897682	-0.1306004845	-0.0867701067	-0.4262183735	-0.761594156	-0.5377546033	-0.5345760562	-0.441906345	-0.1010173621	-0.0226727088	-0.0040892157	0.0053902812	0.0201335862	-0.0118953493	0.0518740746	0.1245054876	0.2016586873	0.3018230362	0.3006963413	0.2565889528	0.1298695617	0.019080695	1	1	0	0	0
1	0.5573849184	2	0.5256718502	0	0.6424112135	0	0.5696824205	2	1.0805555556	1.0527777778	0.7777777778	1.0756944444	1	0.0277777778	-0.3027777778	1.602312171	0.7470704121	-0.0414095313	-0.0281684407	-0.0097716724	0.0265735498	-0.1216101076	-0.3143291848	-0.0852647786	-0.1556622418	-0.2283761346	-0.0546360924	-0.0198996543	0.0007491868	0.0059934125	0.0281358911	0.0445307876	0.0952155663	0.1515276139	0.2284687492	0.2459288334	0.1368557219	0.0371164904	1	1	0	0	0
1	0.5580701059	2	0.5256718502	0	0.6005983005	1	0.5662743942	2	0.7777777778	1.0805555556	1.4361111111	1.0756944444	1	-0.3027777778	0.6583333333	1.8283322409	0.8025074358	-0.0453109695	-0.0079477144	-0.12315021	-0.3496820196	-0.1747355524	-0.2635945292	-0.127638759	-0.0216578497	-0.0067425688	0.0098042473	0.0177180162	0.0211043593	0.034253697	0.0702424377	0.0895316052	0.134937423	0.2015039631	0.2314304376	0.1653727611	0.0537591964	-0.004918527	1	1	0	0	0
1	0.5277492351	1	0.5249791875	0	0.6022309743	1	0.5601243321	2	1.4361111111	0.7777777778	1.1055555556	1.0756944444	2	0.6583333333	-0.3305555556	4.9521763467	0.9999929961	-0.0244902109	0.0096413945	0.2297033037	0.4691072508	0.0762037708	-0.6393854557	-0.7564023286	-0.6143200452	-0.4477032781	-0.2989843709	-0.1431149594	-0.0300886382	-0.0035178959	0.05258988	0.1226369141	0.2214178718	0.3158548333	0.3349592911	0.2623817146	0.1824299236	0.109140086	1	1	0	0	0
1	0.5580701059	2	0.5256718502	0	0.6311905852	0	0.5751214269	2	1.1055555556	1.4361111111	1.0583333333	1.0756944444	1	-0.3305555556	-0.0472222222	0.5145923575	0.7402251045	-0.0166759779	-0.0209741197	-0.0094785406	0.0238391339	-0.108625078	-0.2953019139	-0.0778875248	-0.1466546861	-0.2497809271	-0.0719600917	-0.0279406089	-0.0046253732	0.0049510999	0.0053745383	0.0264433414	0.0789234603	0.1160866513	0.1562342955	0.1341698128	0.0660924332	0.0058631229	1	1	0	0	0
1	0.5505214477	2	0.5332840383	1	0.6144989653	0	0.5642265442	2	1.0583333333	1.1055555556	1.05	1.0756944444	1	-0.0472222222	-0.0083333333	1.6586169532	0.8570058901	-0.0323014627	-0.0042996487	-0.1824299217	-0.3877256768	-0.1549947075	-0.2078704887	-0.258616719	-0.0732237655	-0.0280057114	-0.0014658034	0.0078174271	0.0021172618	-0.0014332166	0.0269641523	0.0509006043	0.0857821469	0.1314819413	0.1514003188	0.1409446647	0.0712795712	0.0083385745	1	1	0	0	0
1	0.5580701059	2	0.5256718502	0	0.6237637116	0	0.5717240928	2	1.05	1.0583333333	1.0444444444	1.0756944444	1	-0.0083333333	-0.0055555556	1.848529139	0.7926796071	-0.0354899779	-0.0365960273	-0.0286566497	0.0083385613	-0.1065645389	-0.3404999955	-0.1656262164	-0.2107982098	-0.2131314385	-0.0340910145	-0.0115304322	0.0004885984	0.0178482639	0.0337331196	0.0625890841	0.1173718277	0.1758721487	0.219186408	0.1756196106	0.0538891072	-0.0051791087	1	1	0	0	0
1	0.5256718502	1	0.5401908798	1	0.6182191632	0	0.5778342099	2	0.9222222222	0.9888888889	1.0055555556	1.0015432099	1	-0.0666666667	0.0833333333	1.9531146571	0.9929781685	-0.0125626295	0.0311967275	0.322670251	0.7036054958	0.2543787666	-0.1935529603	0.0094365638	-0.0128886567	-0.0094941113	-0.0085159772	-0.0007864039	-0.0039128196	0.0013042796	0.0065980305	0.0137324452	0.0265397196	0.0510527048	0.0608423577	0.0603263791	0.0058883745	-0.017701862	1	1	0	0	0
1	0.5249791875	1	0.5408807599	1	0.6072243217	1	0.5724041115	2	1.0055555556	0.9222222222	1.1611111111	1.0015432099	1	0.0833333333	0.1555555556	2.6820683809	0.9991512669	0.0010741152	0.0692460703	0.426112105	0.761594156	0.365441457	-0.2232002546	-0.0151706884	-0.0063486782	-0.0130228855	-0.0081899416	-0.0112010076	-0.0026852784	0.0013810096	0.010587305	0.0197151056	0.0394148931	0.0613009735	0.0820614827	0.079393698	0.0067706513	-0.0260796935	1	1	0	0	0
1	0.5249791875	1	0.5408807599	1	0.6179808075	0	0.5751214269	2	1.1611111111	1.0055555556	0.9638888889	1.0015432099	1	0.1555555556	-0.1972222222	2.1370701212	0.9990006198	0.0093598491	0.0895248904	0.4738163194	0.7594512102	0.2326014796	-0.2397009613	-0.0146912926	-0.0062911662	-0.0065021363	-0.0079789591	-0.0027619992	-0.0020715031	0.000690501	0.00168789	0.0128119379	0.0266163859	0.0482975091	0.0602308214	0.0733680024	0.030296075	-0.0116996405	1	1	0	0	0
1	0.5242864286	1	0.5408807599	1	0.59991135	1	0.5587550723	2	0.9638888889	1.1611111111	0.975	1.0015432099	1	-0.1972222222	0.0111111111	1.2989189811	0.9912665505	0.0016303502	0.0578416085	0.3659565376	0.6964457837	0.1555101589	-0.1695154362	0.0202711157	-0.0120064865	-0.0068281853	-0.0050636315	-0.0036059346	0.0049101906	0.0009973902	0.00460331	0.0058308344	0.0180278124	0.0276897113	0.0338983141	0.0437804917	0.0457712795	0.0388020495	1	1	0	0	0
1	0.5249791875	1	0.5408807599	1	0.6301495626	0	0.5145791994	0	0.975	0.9638888889	1.0333333333	1.0015432099	1	0.0111111111	0.0583333333	2.1879392987	0.9984754497	-0.0017454307	0.0511101001	0.3936270252	0.7498742231	0.3347483533	-0.2169765064	-0.0030113402	-0.0101461875	-0.0085926976	-0.0030688842	-0.0093598528	0.0007672279	-0.0268847348	-0.0255813527	-0.0269805681	-0.0290504449	-0.0290312805	-0.0244695737	-0.0176443346	-0.010625665	-0.0066939411	1	1	0	0	0
1	0.5242864286	1	0.5408807599	1	0.630521223	0	0.5124973965	0	1.0333333333	0.975	1.0166666667	1.0015432099	1	0.0583333333	-0.0166666667	2.1918664429	0.9982120794	0.0049869138	0.077620893	0.4643166515	0.7470991267	0.1584286054	-0.213098257	0.0033757717	-0.0101270189	-0.005984277	-0.0058883719	-0.0037401969	0.0017646121	-0.0305260447	-0.0365802732	-0.0395681085	-0.0382658006	-0.0357374254	-0.034128219	-0.0346646409	-0.0348945314	-0.0327487639	1	1	0	0	0
1	0.5242864286	1	0.5408807599	1	0.6196478429	0	0.5764783947	2	1.0166666667	1.0333333333	0.9472222222	1.0015432099	1	-0.0166666667	-0.0694444444	1.8059835491	0.9952261221	-0.006156893	0.0565798376	0.4053296474	0.7182404859	0.1375677995	-0.2057074669	0.0018413365	-0.0131187766	-0.0068857244	-0.0098776834	-0.0083625443	-0.0017454316	0.0101270175	0.0126585268	0.0287629792	0.0458478468	0.0710020112	0.0829758878	0.0865559287	0.0487759098	-0.0077104467	1	1	0	0	0
1	0.5249791875	1	0.5408807599	1	0.6196478429	0	0.5724041115	2	1	0.9722222222	0.9472222222	0.962037037	1	0.0277777778	-0.0527777778	2.0573261634	0.9989953042	-0.0042593072	0.0628210673	0.4095420494	0.7609854775	0.3636218467	-0.2001363025	-0.0127353704	-0.0030004248	-0.0046160021	-0.0058119537	0.000335701	-0.0020981995	0.0043642149	0.0083086553	0.0147702085	0.0365762019	0.0597691913	0.0843146548	0.0894996848	0.0152526885	-0.0045320713	1	1	0	0	0
1	0.5249791875	1	0.5408807599	1	0.622297022	0	0.5717240928	2	0.9472222222	1	0.8944444444	0.962037037	1	-0.0527777778	-0.0527777778	1.7890986283	0.9970404528	0.005728012	0.0694849905	0.4030427618	0.732273996	0.2358445278	-0.208901707	-0.0128402419	-0.0126514292	-0.0033570931	-0.0054552462	0.0014267797	-0.0015106932	0.0029374806	0.0093996513	0.0237471218	0.0402635945	0.0685453094	0.0792293277	0.087063965	0.0117913283	-0.0057699715	1	1	0	0	0
1	0.5242864286	1	0.5408807599	1	0.6227331046	0	0.5778342099	2	0.8944444444	0.9472222222	0.9194444444	0.962037037	1	-0.0527777778	0.025	1.9730001392	0.995178116	0.022509831	0.0825436069	0.4390940096	0.7110370608	0.1318959948	-0.1685604522	0.0003356962	-0.0084975054	-0.0135954886	-0.0100500238	-0.0056231045	-0.0052874005	0.0111619262	0.0130080663	0.0124206671	0.040095988	0.0639495354	0.0766433525	0.0729711956	0.0045950138	-0.0288002609	1	1	0	0	0
1	0.5249791875	1	0.5408807599	1	0.6179061485	0	0.5771564476	2	0.9194444444	0.8944444444	1.0111111111	0.962037037	1	0.025	0.0916666667	2.4337642149	0.9983507053	0.0045320721	0.0693805917	0.4370933224	0.7486563473	0.2637576009	-0.2001362837	-0.0125675318	-0.002664727	-0.0102598425	-0.0100500348	-0.0028535435	-0.0022660592	0.0005874881	0.0163644488	0.0276890856	0.0488908961	0.0723033073	0.1056885752	0.1121572578	0.0723033068	-0.0098402432	1	1	0	0	0
1	0.5242864286	1	0.5415704832	1	0.6176157554	0	0.5703632449	2	1.0111111111	0.9194444444	0.9138888889	0.962037037	1	0.0916666667	-0.0972222222	2.2871366802	0.998617022	0.0078051286	0.0953868338	0.466330973	0.7506140326	0.2336438547	-0.2026727888	0.013574485	-0.0091269051	-0.0115185882	-0.0062105731	-0.0057070245	0.0015946258	-0.0006714218	0.0081408112	0.0207272034	0.0377495734	0.0666237786	0.0740563628	0.0837313112	0.0498955808	-0.004280292	1	1	0	0	0
1	0.5249791875	1	0.5408807599	1	0.6126691618	0	0.5710438031	2	0.9138888889	1.0111111111	0.975	0.962037037	1	-0.0972222222	0.0611111111	1.8053774928	0.9985814222	0.0127563319	0.0948462274	0.4656246476	0.7487024483	0.23586435	-0.2105665968	0.0028745125	-0.0103017947	-0.0059588272	-0.0067980714	-0.0028535545	-0.0006714378	-0.002517849	0.0100709886	0.0136793687	0.0219855252	0.0492258011	0.053662193	0.0549173975	0.0369114557	-0.0047209055	1	1	0	0	0
1	0.5249791875	1	0.5408807599	1	0.6138877994	0	0.5703632449	2	0.975	0.9138888889	1.025	0.962037037	1	0.0611111111	0.05	2.4449915279	0.9983506905	8.3927742472234E-005	0.0575527801	0.4476238174	0.7515742649	0.2109074444	-0.2083197262	-0.0071337481	-0.0059588032	-0.0133017646	-0.0062105731	-0.0026856813	-0.0004196387	-0.0020142631	0.011665432	0.0215661105	0.04663002	0.0643674587	0.0687123733	0.0691300197	0.0369114627	-0.0055391776	1	1	0	0	0
1	0.5256718502	1	0.5388106603	1	0.6617298508	0	0.5249791875	0	0.6555555556	0.6472222222	0.6583333333	0.6632936508	1	0.0083333333	0.0027777778	2.4234508472	0.9999352699	-0.1197307766	0.1373643835	0.5966630066	0.7472494454	0.5981947521	0.1306068958	0.0124160948	-0.024255324	-0.0635198677	-0.0585980624	-0.046809763	-0.0563779053	-0.0540252286	-0.0452251769	-0.0405582117	-0.0201992633	0.0078512891	0.0368586087	0.0799314551	0.108259173	0.1016284436	1	1	0	0	0
1	0.5242864286	1	0.5415704832	1	0.6661717868	0	0.5263644141	0	0.6583333333	0.6555555556	0.6083333333	0.6632936508	1	0.0027777778	-0.05	2.2336429854	0.9999720403	-0.0965401724	0.2787173461	0.6582068227	0.7494617672	0.5759259414	0.1229685058	0.0132319739	-0.0466337102	-0.0636955714	-0.0659795866	-0.0505501408	-0.0475359251	-0.0409105027	-0.0442567177	-0.0335985723	-0.0177300446	-0.0041462331	0.0273409013	0.0664187639	0.0936771507	0.1103511164	1	1	0	0	0
1	0.5235935763	1	0.5422600473	1	0.6597410254	0	0.530517575	1	0.6083333333	0.6583333333	0.6555555556	0.6632936508	1	-0.05	0.0472222222	2.2094779257	0.9999729796	-0.0822100564	0.2935190691	0.6614941293	0.755090765	0.5564485839	0.1194916481	0.0493621644	-0.033179996	-0.0680653753	-0.0621798115	-0.0600045574	-0.056487799	-0.0395893716	-0.0297208534	-0.001587931	0.0383561919	0.0948138119	0.1086078983	0.1059918221	0.0801067641	0.0456653671	1	1	0	0	0
1	0.5242864286	1	0.5381203259	1	0.6611469065	0	0.5277492351	0	0.6555555556	0.6083333333	0.65	0.6632936508	1	0.0472222222	-0.0055555556	2.6675329021	0.9999471213	-0.1073654402	0.2123259378	0.6243635163	0.7507253712	0.5701789208	0.1145320586	0.0361097363	-0.0291038581	-0.0580045907	-0.0594771469	-0.0404701413	-0.0496041656	-0.0287512916	-0.0290157258	-0.0284868533	-0.0159662001	-0.0051166414	0.0066162761	0.0273408771	0.058510112	0.0962124139	1	1	0	0	0
1	0.5235935763	1	0.5401908798	1	0.6578843874	0	0.5263644141	0	0.65	0.6555555556	0.6722222222	0.6632936508	1	-0.0055555556	0.0222222222	2.3962219644	0.9999755155	-0.0818595703	0.2956942257	0.6641156582	0.7492296758	0.5785142573	0.109218085	0.0240789641	-0.0357132867	-0.0712258564	-0.0605539241	-0.0616525411	-0.0465016269	-0.050770106	-0.0386204202	-0.0430239859	-0.0296326885	-0.0026465241	0.0189647065	0.0622018174	0.1058173706	0.1141838083	1	1	0	0	0
1	0.5256718502	1	0.5388106603	1	0.6617298508	0	0.5242864286	0	0.6722222222	0.65	0.6583333333	0.6632936508	1	0.0222222222	-0.0138888889	2.4567616775	0.9999770741	-0.0916655557	0.1820593973	0.6176704693	0.7586329544	0.6342336229	0.1747354765	0.0164292217	-0.0374752599	-0.0681751407	-0.0683507636	-0.0562239929	-0.0542011486	-0.0524417986	-0.0452251769	-0.0402939924	-0.030778512	-0.0062634363	0.009350874	0.0307785036	0.079668477	0.1113967249	1	1	0	0	0
1	0.5263644141	1	0.5401908798	1	0.660927995	0	0.5249791875	0	0.6583333333	0.6722222222	0.6722222222	0.6632936508	1	-0.0138888889	0.0138888889	2.3188288589	0.9999772464	-0.0911406647	0.133770608	0.6023283772	0.7574884921	0.64835913	0.2202724906	0.0241671427	-0.0192292398	-0.0704577877	-0.0743409826	-0.0654086387	-0.068614146	-0.0569275089	-0.048658136	-0.0457534158	-0.0292801634	-0.0029994326	0.012790958	0.0501541469	0.097785398	0.120882743	1	1	0	0	0
1	0.5249791875	1	0.5388106603	1	0.6603355501	0	0.5256718502	0	0.6722222222	0.6583333333	0.6638888889	0.6632936508	1	0.0138888889	-0.0083333333	2.4200288149	0.9999706095	-0.0921029088	0.1981297772	0.6273686152	0.7595488931	0.6008366445	0.1613837234	0.0489221295	-0.0210810961	-0.0588618067	-0.0632123401	-0.0508141328	-0.0500661847	-0.0533215339	-0.0498021791	-0.0398536101	-0.0367705057	-0.026900135	0.0021172308	0.0123499433	0.0364180955	0.087377499	1	1	0	0	0
1	0.5242864286	1	0.5408807599	1	0.6580393816	0	0.5256718502	0	0.6638888889	0.6722222222	0.6777777778	0.6632936508	1	-0.0083333333	0.0138888889	2.3507259789	0.9999804043	-0.0624654415	0.2909371537	0.6502343523	0.7515903161	0.6038859808	0.1818248147	0.0380038245	-0.0247843085	-0.0709844703	-0.0680873361	-0.0505061474	-0.0635198551	-0.0553445621	-0.0486581171	-0.04390453	-0.0380919162	-0.0195819793	0.0030876322	0.0222273746	0.0651890552	0.1110482094	1	1	0	0	0
1	0.5249791875	1	0.5381203259	1	0.658798221	0	0.5242864286	0	0.6777777778	0.6638888889	0.6777777778	0.6632936508	1	0.0138888889	8.88178419700125E-016	2.4427915392	0.9999410332	-0.0840498391	0.1705201714	0.6139190292	0.7550623203	0.5690615286	0.1201655301	0.0245418566	-0.043992579	-0.0690531698	-0.0695799356	-0.0517379679	-0.0554324941	-0.0545529995	-0.0439925822	-0.0316598325	-0.0296327211	-0.0231972936	-0.0081159199	0.0034405029	0.0272527413	0.0726519678	1	1	0	0	0
1	0.5249791875	1	0.5401908798	1	0.6573042363	0	0.5235935763	0	0.6777777778	0.6777777778	0.6916666667	0.6632936508	1	8.88178419700125E-016	0.0138888889	2.3968507182	0.9999826312	-0.0801067683	0.2244234011	0.630461439	0.7557724976	0.638942593	0.2010943651	0.0404701445	-0.0121735416	-0.0723887068	-0.0698213742	-0.0618503027	-0.0545530058	-0.0496261984	-0.0498021927	-0.0500661858	-0.0338629356	-0.0220510475	-0.0076748673	0.0179064127	0.0432001146	0.0836994304	1	1	0	0	0
1	0.5249791875	1	0.5395008458	1	0.6567183272	0	0.5249791875	0	0.6916666667	0.6777777778	0.6972222222	0.6632936508	1	0.0138888889	0.0055555556	2.4528189656	0.9999853702	-0.0789671526	0.2516342101	0.6513658778	0.761594156	0.6179432	0.1737945059	0.0588617721	-0.0125263737	-0.063168406	-0.0565757731	-0.0610593362	-0.0549048286	-0.0513860505	-0.0546409497	-0.0411747088	-0.029103855	-0.0335104532	-0.0292801455	-0.0103211891	0.0025583264	0.0371228901	1	1	0	0	0
1	0.5256718502	1	0.5395008458	1	0.6208684989	0	0.5470823178	2	0.6833333333	0.6805555556	0.6305555556	0.6681623932	1	0.0027777778	-0.0527777778	2.2258780873	0.9999273502	-0.1054604399	0.1447161181	0.5928830599	0.7352819821	0.6089661058	0.1671582855	0.0249810784	-0.0171341972	-0.056643832	-0.0511939937	-0.0364081993	-0.0392109186	-0.0171975034	0.0076392315	0.0290510267	0.0399905157	0.0390634231	0.0419287567	0.0259934321	0.0152776358	0.0164591267	1	1	0	0	0
1	0.5235935763	1	0.5422600473	1	0.6581893391	0	0.5277492351	0	0.6305555556	0.6833333333	0.6694444444	0.6681623932	1	-0.0527777778	0.0388888889	2.1715643314	0.999978006	-0.0973147837	0.2869265157	0.6648877389	0.7517264831	0.5819648113	0.1295178654	0.0364503297	-0.0290299488	-0.0584316521	-0.0506045851	-0.0522041945	-0.0459726901	-0.0323189347	-0.020551681	-0.0159527111	-0.0076814154	0.0164591151	0.0570014271	0.093069661	0.1061907628	0.0981299572	1	1	0	0	0
1	0.5249791875	1	0.5381203259	1	0.6594078349	0	0.5242864286	0	0.6694444444	0.6305555556	0.6722222222	0.6681623932	1	0.0388888889	0.0027777778	2.6250987783	0.9990437276	-0.0945548436	0.0801887259	0.5194850024	0.6956922862	0.500230709	0.0645494502	0.024749076	-0.0450882358	-0.0462254452	-0.0270267329	-0.0434454144	-0.0348695781	-0.0114796691	-0.0220282393	-0.0183155751	0.0050647652	0.0097916319	0.0253185422	0.055570951	0.0796016382	0.1057108787	1	1	0	0	0
1	0.5256718502	1	0.5415704832	1	0.6614138966	0	0.5256718502	0	0.6722222222	0.6694444444	0.6611111111	0.6681623932	1	0.0027777778	-0.0111111111	2.3433438638	0.9996818682	-0.083794102	0.1734695405	0.5701778268	0.6904063079	0.5670075249	0.1446541081	0.0412335051	-0.0020681336	-0.0360288369	-0.0298733932	-0.0281865475	-0.0242218541	-0.0264152075	-0.0302950804	-0.0226189085	-0.0127457512	-0.0142649024	-0.0008441604	0.0207626215	0.032065962	0.0664195809	1	1	0	0	0
1	0.5256718502	1	0.5388106603	1	0.6623673589	0	0.5270568766	0	0.6611111111	0.6722222222	0.6527777778	0.6681623932	1	-0.0111111111	-0.0083333333	2.2712350345	0.9998678642	-0.0912492426	0.1732239386	0.5834143874	0.7176986447	0.5943863903	0.145418566	0.0046427261	-0.0314545687	-0.0552132291	-0.058095104	-0.0455515007	-0.0402432739	-0.0494257709	-0.0451303353	-0.0293673252	-0.0064997306	0.0022791461	0.0207626477	0.0503520133	0.0874810334	0.1189629667	1	1	0	0	0
1	0.5242864286	1	0.5422600473	1	0.6595704793	0	0.5277492351	0	0.6527777778	0.6611111111	0.6638888889	0.6681623932	1	-0.0083333333	0.0111111111	2.3451205435	0.9999341615	-0.0671339443	0.2589211234	0.6395908852	0.736993108	0.547542732	0.1042916476	0.0453830487	-0.0279756562	-0.0458253327	-0.027111084	-0.0412967412	-0.0310962427	-0.0410017697	-0.0233781637	-0.0093695793	-0.0133364796	0.0024479713	0.0137584663	0.0492573679	0.0889886474	0.1023708976	1	1	0	0	0
1	0.5249791875	1	0.5401908798	1	0.6584960223	0	0.5242864286	0	0.6638888889	0.6527777778	0.6805555556	0.6681623932	1	0.0111111111	0.0166666667	2.4812487933	0.999343034	-0.0858892548	0.1315714739	0.5556472917	0.6923670802	0.5101013041	0.0844646496	0.0254872523	-0.0200876181	-0.0436981406	-0.0351014117	-0.031623251	-0.0430662424	-0.0436139106	-0.0369561035	-0.0319816456	-0.0324876157	-0.0035453449	0.0110576605	0.0354808164	0.0755951761	0.0882977	1	1	0	0	0
1	0.5249791875	1	0.5401908798	1	0.6594078349	0	0.5277492351	0	0.6805555556	0.6638888889	0.6722222222	0.6681623932	1	0.0166666667	-0.0083333333	2.4345858303	0.9998711782	-0.0929860124	0.2107596194	0.6013290712	0.7135598083	0.5782684989	0.1491966406	0.0468992764	0.0170498068	-0.0253184999	-0.0327405633	-0.010635646	-0.0175561083	-0.0556551019	-0.0550870609	-0.03670322	-0.0317708676	-0.0359866851	-0.0229774574	-0.008040197	0.0031865754	0.0254028607	1	1	0	0	0
1	0.5249791875	1	0.5388106603	1	0.6603355501	0	0.5263644141	0	0.6722222222	0.6805555556	0.6638888889	0.6681623932	1	-0.0083333333	-0.0083333333	2.2857645213	0.9999004905	-0.0811951345	0.1936163439	0.6113372719	0.7274201029	0.5759884378	0.110632929	0.0075970013	-0.0303793957	-0.0693604539	-0.0532564716	-0.0504362381	-0.0448565845	-0.041170349	-0.0360288288	-0.0330779	-0.0240531063	-0.0083566984	0.0020259102	0.0174717271	0.0564124098	0.0931115087	1	1	0	0	0
1	0.5242864286	1	0.5422600473	1	0.6601954865	0	0.5249791875	0	0.6638888889	0.6722222222	0.6583333333	0.6681623932	1	-0.0083333333	-0.0055555556	2.2949056449	0.9998756486	-0.0712083815	0.2598068946	0.6253223668	0.7219187497	0.5328527354	0.0692764273	0.0095383782	-0.0474046215	-0.0660834469	-0.0586419816	-0.0506256824	-0.0401590696	-0.0499310353	-0.0399062364	-0.0329092698	-0.0238000544	-0.0119861299	0.0049803161	0.0309696787	0.0647805946	0.1021829162	1	1	0	0	0
1	0.5256718502	1	0.5388106603	1	0.6574679018	0	0.5263644141	0	0.6583333333	0.6638888889	0.6972222222	0.6681623932	1	-0.0055555556	0.0388888889	2.4439476857	0.9999785708	-0.0805242466	0.1764153716	0.6194268674	0.761594156	0.6329468673	0.1726097166	0.0562441054	-0.0033765389	-0.0588943462	-0.0380730443	-0.0334995096	-0.0387262807	-0.0279545343	-0.0231250494	-0.0204673019	0.0003376698	0.0151299175	0.0318130154	0.0775882094	0.110778832	0.0997807882	1	1	0	0	0
1	0.5256718502	1	0.5395008458	1	0.6014761643	1	0.5374298453	1	0.525	0.5277777778	0.5611111111	0.535130719	1	-0.0027777778	0.0361111111	2.4778113997	0.9969254877	-0.0779073276	-0.0499993203	0.3481924264	0.6817694706	0.1717634003	-0.4500298093	-0.2257259267	-0.0555067313	-0.0073138473	0.0313353628	0.0743828541	0.1359908303	0.2151105894	0.3118210975	0.3799425709	0.4113181814	0.3895120721	0.3135718025	0.1776602454	0.0746426067	0.008806397	1	1	0	0	0
1	0.5263644141	1	0.5395008458	1	0.6081019362	1	0.5408807599	2	0.5611111111	0.525	0.5472222222	0.535130719	1	0.0361111111	-0.0138888889	2.5884315985	0.9964211092	-0.071673284	-0.0694454595	0.3014083782	0.6466155824	0.2750988345	-0.4472280851	-0.3160259312	-0.1035900412	-0.0333483298	0.0025001767	0.0444516168	0.088283631	0.1572047264	0.2573825506	0.3596170514	0.3994687429	0.3931778093	0.3031715003	0.1631675333	0.0639472504	0.0044779177	1	1	0	0	0
1	0.5256718502	1	0.5401908798	1	0.6036185647	1	0.5374298453	1	0.5472222222	0.5611111111	0.5472222222	0.535130719	1	-0.0138888889	4.44089209850063E-016	2.2638593761	0.9844849499	-0.0770171164	-0.080985032	0.221826697	0.5521985985	0.0232811161	-0.4999914248	-0.2636435835	-0.0815410711	-0.0393110185	0.0088810253	0.0601184711	0.116418754	0.1770819763	0.2753747431	0.3402319299	0.3742127557	0.3738276049	0.3176037588	0.1925075438	0.0885798184	0.0317827094	1	1	0	0	0
1	0.5249791875	1	0.5408807599	1	0.6038749083	1	0.5381203259	1	0.5472222222	0.5472222222	0.5444444444	0.535130719	1	4.44089209850063E-016	-0.0027777778	2.3503790539	0.9870647645	-0.0702995478	-0.0276069863	0.3254997507	0.5649320646	0.0476912424	-0.4755093314	-0.2490708498	-0.0602300163	-0.0290238662	0.0138061253	0.0564739187	0.1154615739	0.1835804358	0.2575219233	0.3278997542	0.3774173352	0.4083375234	0.373442327	0.220797537	0.106321018	0.022833556	1	1	0	0	0
1	0.5249791875	1	0.5408807599	1	0.6044294613	1	0.5367392212	1	0.5444444444	0.5472222222	0.5194444444	0.535130719	1	-0.0027777778	-0.025	2.2488972861	0.9899782046	-0.0692969248	-0.0282035876	0.3460262888	0.6123919799	0.0208940398	-0.4443876196	-0.1970668952	-0.0632411114	-0.0210432405	0.0162684376	0.0575525712	0.1184060503	0.1966723144	0.2827041672	0.354407476	0.3865959677	0.3823984499	0.3128987075	0.1760696971	0.0744941745	0.0249220724	1	1	0	0	0
1	0.5249791875	1	0.5415704832	1	0.605350594	1	0.5381203259	1	0.5194444444	0.5444444444	0.5194444444	0.535130719	1	-0.025	4.44089209850063E-016	2.1759778005	0.9987415339	-0.0638357467	0.0067914569	0.4659529471	0.6969054088	0.1793943392	-0.4506545162	-0.2463738374	-0.0557671451	0.0017165457	0.0254441678	0.0504087644	0.1212013717	0.1844456952	0.2766502506	0.3329525096	0.4040999685	0.4289253383	0.36503073	0.2303247949	0.0960903951	0.0116421365	1	1	0	0	0
1	0.5249791875	1	0.5374298453	1	0.6037774202	1	0.5360484561	1	0.5194444444	0.5194444444	0.5166666667	0.535130719	1	4.44089209850063E-016	-0.0027777778	2.3421427597	0.9953560182	-0.0916149127	-0.0636870997	0.3387462345	0.6571934824	0.1316663819	-0.459295147	-0.2109783775	-0.059114519	0.0051122783	0.0361064018	0.082022938	0.1578233545	0.2220395596	0.3246320507	0.412929057	0.4173764364	0.3835448062	0.2820173474	0.1694084242	0.0597838422	0.0305524726	1	1	0	0	0
1	0.5256718502	1	0.5388106603	1	0.605350594	1	0.5367392212	1	0.5166666667	0.5194444444	0.5194444444	0.535130719	1	-0.0027777778	0.0027777778	2.3421427597	0.9940596236	-0.0899125116	-0.0867283457	0.2744778556	0.6307989491	0.1110410599	-0.4916331797	-0.2510998389	-0.0769429294	-0.015485	0.0295458369	0.0757928749	0.1376752372	0.2017967048	0.3089885619	0.3867229174	0.4103256066	0.3968310883	0.304932558	0.1662170755	0.0605274633	0.0113809611	1	1	0	0	0
1	0.5249791875	1	0.5395008458	1	0.6073172282	1	0.5374298453	1	0.5194444444	0.5166666667	0.5	0.535130719	1	0.0027777778	-0.0194444444	2.297820544	0.9879719212	-0.0988625169	-0.0662510595	0.2729934814	0.5897543521	0.0900605514	-0.4779027457	-0.2066600179	-0.0631667701	-0.0126495117	0.0262645821	0.070745118	0.143747048	0.2198744056	0.3000507047	0.3883719035	0.4020997904	0.3735707536	0.3149170427	0.1837246542	0.0238778281	-0.0013807156	1	1	0	0	0
1	0.5256718502	1	0.5367392212	1	0.6031222226	1	0.5346665134	1	0.5	0.5194444444	0.5138888889	0.535130719	1	-0.0194444444	0.0138888889	2.2554625853	0.9849945833	-0.0786490942	-0.0698911057	0.2112635973	0.5912612172	0.1027778328	-0.4587944594	-0.2289108415	-0.0727127016	-0.007463112	0.0420305957	0.0679227098	0.1122202988	0.2046229509	0.3297302519	0.4073420342	0.392546683	0.3635096031	0.247179851	0.1200246381	0.0561763423	0.0062690322	1	1	0	0	0
1	0.5249791875	1	0.5374298453	1	0.6023194826	1	0.5353575526	1	0.5138888889	0.5	0.5222222222	0.535130719	1	0.0138888889	0.0083333333	2.4976885407	0.9941043559	-0.1091978711	-0.071487661	0.3152195636	0.6665866571	0.1556029731	-0.4174380563	-0.152506383	-0.0377087997	-0.0335719663	0.0267866455	0.0495154157	0.1284014026	0.2329380316	0.3286988109	0.3751750659	0.3762326797	0.335273045	0.2150393988	0.0903196476	0.0038062306	-0.0410248113	1	1	0	0	0
1	0.5256718502	1	0.5374298453	1	0.6031001233	1	0.5360484561	1	0.5222222222	0.5138888889	0.5333333333	0.535130719	1	0.0083333333	0.0111111111	2.4639745773	0.9929420018	-0.0710792788	-0.0477284722	0.2936535087	0.6497315156	0.1573502992	-0.4358427462	-0.1991104525	-0.0410248101	0.0053734776	0.0285018612	0.0496642961	0.0958315714	0.1959547361	0.3034425539	0.3720285132	0.402224913	0.3667437071	0.2644767124	0.1363204344	0.021640015	-0.0009329141	1	1	0	0	0
1	0.5249791875	1	0.5408807599	1	0.5983336322	1	0.5353575526	1	0.5333333333	0.5222222222	0.5666666667	0.535130719	1	0.0111111111	0.0333333333	2.5790118378	0.9863182721	-0.0569574668	-0.0340192585	0.3106078226	0.6009792702	-0.0524929501	-0.4448367021	-0.1697708477	-0.0424403456	-0.0068660762	0.0213416332	0.0645418421	0.1396881494	0.2196613311	0.3185429023	0.3638981502	0.3936824493	0.3766490521	0.2702976081	0.1317763882	0.0505576434	0.0089183405	1	1	0	0	0
1	0.5249791875	1	0.5408807599	1	0.601794579	1	0.5388106603	1	0.5666666667	0.5333333333	0.5777777778	0.535130719	1	0.0333333333	0.0111111111	2.6650321104	0.9923537999	-0.0736034931	-0.0270103691	0.3391756134	0.6030729182	0.0655822757	-0.4850404236	-0.2477753715	-0.0714134219	-0.0138807458	0.004030124	0.0389384239	0.091540898	0.1579325133	0.2582186106	0.3284325064	0.3780571603	0.3882451505	0.3305614565	0.2251946327	0.0942044912	0.0237286553	1	1	0	0	0
1	0.5249791875	1	0.5415704832	1	0.6055344619	1	0.5408807599	2	0.5777777778	0.5666666667	0.5555555556	0.535130719	1	0.0111111111	-0.0222222222	2.3650228743	0.9938829054	-0.0743457348	-0.002238964	0.3744694559	0.610241877	0.111630732	-0.4711660268	-0.2639560565	-0.1007836184	-0.0504832045	-0.0182083031	0.0097019093	0.0575897623	0.1290986566	0.2384711772	0.326833611	0.3684219792	0.3616946442	0.2738911732	0.1263456021	0.0183575215	-0.0256679138	1	1	0	0	0
1	0.5256718502	1	0.5408807599	1	0.6090275886	1	0.5401908798	2	0.5611111111	0.5583333333	0.5194444444	0.5325163399	1	0.0027777778	-0.0416666667	2.235390206	0.7306734184	-0.0484132613	-0.0240322553	0.1457036385	0.3104655853	0.0545333624	-0.2250466407	-0.1234725266	-0.0378994087	-0.0068089787	0.0058573848	0.0196207662	0.0504100792	0.0636239887	0.1005483649	0.1445311192	0.1725682398	0.1777211612	0.1661297653	0.1312203324	0.0588673467	0.0225727892	1	1	0	0	0
1	0.5256718502	1	0.5395008458	1	0.6049757794	1	0.5360484561	1	0.5194444444	0.5611111111	0.5138888889	0.5325163399	1	-0.0416666667	-0.0055555556	2.0517246529	0.7091273826	-0.0448605978	-0.0384236806	0.1267995279	0.3029742521	0.0233271308	-0.2204466129	-0.0920794447	-0.0253768427	-0.0033963246	0.0141586652	0.0321146986	0.0639834813	0.0977377819	0.1383245497	0.1743187617	0.1850836456	0.1756865859	0.1261214364	0.0595213427	0.0055128412	-0.0006562965	1	1	0	0	0
1	0.5256718502	1	0.5395008458	1	0.6054419572	1	0.5353575526	1	0.5138888889	0.5194444444	0.5	0.5325163399	1	-0.0055555556	-0.0138888889	2.2554625853	0.6844408924	-0.0217364179	-0.0318360582	0.1313493281	0.2815922775	-0.0102706878	-0.2119225361	-0.068132778	-0.0040690188	0.0012469645	0.0149296505	0.0354252167	0.0558583142	0.0960474296	0.1395957071	0.164214589	0.1760045857	0.154748519	0.100873185	0.0464160535	0.0016407396	-0.0074816492	1	1	0	0	0
1	0.5249791875	1	0.5360484561	1	0.6036679976	1	0.5353575526	1	0.5	0.5138888889	0.5083333333	0.5325163399	1	-0.0138888889	0.0083333333	2.2741148407	0.6773554131	-0.0363100788	-0.0286723241	0.1291880455	0.2717591039	-0.0031502161	-0.2081114001	-0.074009598	-0.0159302641	0.005512841	0.0112714249	0.0402912296	0.0750701585	0.1104292141	0.155773282	0.1667678786	0.1688089035	0.1343150243	0.08970375	0.0386530451	-0.0103527165	-0.0094175876	1	1	0	0	0
1	0.5256718502	1	0.5367392212	1	0.6012777508	1	0.5346665134	1	0.5083333333	0.5	0.5333333333	0.5325163399	1	0.0083333333	0.025	2.5223249185	0.7008594643	-0.0392919592	-0.0352121859	0.1176517255	0.2905706944	-0.0224743946	-0.2280818523	-0.0873595963	-0.0374570355	-0.0106316139	0.0189647149	0.0453845645	0.0818047077	0.1104616273	0.1544282126	0.1831815115	0.179690705	0.1496839131	0.0933807509	0.0470872884	0.0138469832	-0.0084824369	1	1	0	0	0
1	0.5256718502	1	0.5381203259	1	0.6156450647	0	0.5374298453	1	0.5333333333	0.5083333333	0.4361111111	0.5325163399	1	0.025	-0.0972222222	2.1774559852	0.6874770262	-0.0351957986	-0.0274427373	0.1151268391	0.2761146598	0.0029205131	-0.2235351853	-0.0935759215	-0.0260491043	-0.0055620617	0.0101722571	0.0372112695	0.0645553709	0.093153045	0.1442258763	0.1691914349	0.1797542156	0.167979911	0.1251525288	0.0771581402	0.0202768033	0.0049221882	1	1	0	0	0
1	0.5263644141	1	0.5395008458	1	0.7262119934	0	0.5415704832	2	0.4361111111	0.5333333333	0.3083333333	0.5325163399	1	-0.0972222222	-0.1277777778	1.3015721749	0.714181581	-0.0428954945	-0.0367361004	0.1135723231	0.2932873461	0.0631827708	-0.2314698192	-0.1187518381	-0.0427317223	-0.0275083179	-0.0191615324	0.0072191431	0.0246717658	-0.0344419748	-0.0002625188	0.107089266	0.2840226004	0.6306345471	0.7543907522	0.2537663141	-0.2421868176	-0.258671995	1	1	0	0	0
0	0.521514485	1	0.5	2	0.598749895	1	0.5491463565	2	0.3083333333	0.4361111111	0.9305555556	0.5325163399	1	-0.1277777778	0.6222222222	5.2739021292	0.9999849034	0.2161339532	0.4275121441	0.669591341	0.761594156	0.5695875623	0.0453190724	-0.2421868176	-0.2771298414	-0.2209460709	-0.1893900015	-0.1836254683	-0.1860975536	-0.0611561151	0.0005906623	0.0576246094	0.0935108623	0.3127173743	0.6530508718	0.4587426593	0.0039377635	-0.1195282205	1	1	0	0	0
0	0.5256718502	1	0.5	2	0.6110561706	0	0.5443277579	2	0.9305555556	0.3083333333	0.5444444444	0.5325163399	2	0.6222222222	-0.3861111111	12.462392266	0.9995872086	0.14094681	0.3127173743	0.5569526354	0.6738771776	0.5255234956	0.1714218477	-0.0213592229	-0.0995575318	-0.1481437331	-0.1670868902	-0.1155801374	-0.0781366514	-0.0466943822	-0.0061691181	0.0578208418	0.086350011	0.0852425189	0.0732263126	0.0493298839	0.0265409879	0.0089254034	1	1	0	0	0
1	0.5263644141	1	0.5401908798	1	0.6137920814	0	0.5457053876	2	0.5444444444	0.9305555556	0.5527777778	0.5325163399	1	-0.3861111111	0.0083333333	0.9773559941	0.7202067852	6.56292631768807E-005	0.0076293072	0.1559653894	0.3140786049	0.0652415814	-0.196656183	-0.1144630019	-0.0447950963	-0.0195551614	-0.0055128406	0.0116815571	0.0313607177	0.0576246115	0.0873270359	0.1032599503	0.1097484529	0.0940312862	0.0809408732	0.0477421114	0.0302460712	0.0021001477	1	1	0	0	0
1	0.5263644141	1	0.5388106603	1	0.6103605935	1	0.5415704832	2	0.5527777778	0.5444444444	0.5333333333	0.5325163399	1	0.0083333333	-0.0194444444	2.3501945579	0.6807833217	-0.0514410667	-0.0576900235	0.0739606485	0.2513239213	0.0214904254	-0.2320287629	-0.1269771011	-0.0359987438	-0.0145851679	-0.001558703	0.0173901218	0.0404877975	0.0760979176	0.1182827081	0.142538515	0.1617549685	0.1504697693	0.1174413724	0.0581478866	0.0124689965	-0.0087285333	1	1	0	0	0
1	0.5249791875	1	0.5401908798	1	0.606270979	1	0.5381203259	1	0.5333333333	0.5527777778	0.5194444444	0.5325163399	1	-0.0194444444	-0.0138888889	2.1713440084	0.7139774446	-0.0341633744	-0.0285575688	0.1365860238	0.3007075415	0.0425024382	-0.2229427804	-0.1064404528	-0.0278362136	-0.0002789241	0.0130267616	0.0316885377	0.0613032226	0.0899478762	0.1252171323	0.1544762615	0.1668954844	0.1614034267	0.1331548188	0.0784627871	0.0326064059	0.0028876985	1	1	0	0	0
1	0.5256718502	1	0.5381203259	1	0.6152343585	0	0.5381203259	1	0.5194444444	0.5333333333	0.4472222222	0.5325163399	1	-0.0138888889	-0.0722222222	1.9957245757	0.6880062676	-0.0352941226	-0.0426989681	0.1070081689	0.2762359073	0.0193091434	-0.2221786379	-0.1037631321	-0.0316885398	-0.0039049466	0.0174065261	0.0382434646	0.062414661	0.0852425202	0.1199810381	0.149363101	0.167405853	0.1682350102	0.1404965015	0.0862197308	0.0347041784	0.0060050486	1	1	0	0	0
1	0.5256718502	1	0.5360484561	1	0.7080225498	0	0.533975341	1	0.4472222222	0.5194444444	0.3777777778	0.5325163399	1	-0.0722222222	-0.0694444444	1.5876014105	0.6673807535	-0.0504919055	-0.0536172346	0.0806800671	0.2457205034	-0.0203752033	-0.2275529499	-0.0915588323	-0.0240158553	-0.009581643	0.0146343847	0.0317541056	0.0522265088	-0.015388957	-0.003379919	0.0414542112	0.1788014109	0.4223763265	0.5645562586	0.5766391174	0.5644221154	0.3755716202	1	1	0	0	0
0	0.5270568766	1	0.5	2	0.6336439759	0	0.5429494495	2	0.3777777778	0.4472222222	0.7083333333	0.5325163399	1	-0.0694444444	0.3305555556	3.5370824859	0.9997481546	0.1071379234	0.3236589434	0.5280484614	0.579828192	0.5714468114	0.4962607786	0.1119848437	-0.1267672423	-0.1686813776	-0.1886305791	-0.2129408966	-0.2155707987	0.0335897722	0.0454500608	0.1132483966	0.3198199017	0.5432801854	0.6496406928	0.3194074271	0.0022314024	-0.0917866084	1	1	0	0	0
0	0.5270568766	1	0.5	2	0.6286324831	0	0.5546420091	2	0.6972222222	0.6972222222	0.6777777778	0.6863247863	1	-1.11022302462516E-016	-0.0194444444	2.2975206397	0.9999697715	0.1637074198	0.4155668525	0.6137473027	0.6897424784	0.582256977	0.3122024279	-0.0509073063	-0.2615887178	-0.2927472075	-0.2464708823	-0.1800088993	-0.127712127	-0.1333464761	-0.0933505291	-0.0235606467	0.0317145374	0.0905876936	0.1258909128	0.116909809	0.0938831982	0.0946327909	2	0	1	0	0
0	0.5263644141	1	0.5	2	0.6241382518	0	0.5505214477	2	0.6777777778	0.6972222222	0.675	0.6863247863	1	-0.0194444444	-0.0027777778	2.2372961317	0.9999603688	0.1163404729	0.3755535889	0.6046355231	0.6897007325	0.5722243938	0.2642566067	-0.1228536995	-0.2922376134	-0.2926016338	-0.2294982404	-0.1712904166	-0.1333464743	-0.1535408282	-0.109148655	-0.0379166918	0.0421293417	0.1055287266	0.1444136219	0.1477443871	0.1328577238	0.1332878335	2	0	1	0	0
0	0.5277492351	1	0.5	2	0.6250844774	0	0.5498339973	2	0.675	0.6777777778	0.6555555556	0.6863247863	1	-0.0027777778	-0.0194444444	2.2864439417	0.9999847058	0.0690326153	0.3369684858	0.5948485439	0.7120501783	0.6171597539	0.3016019785	-0.1153979584	-0.3027594416	-0.2996467275	-0.2319855337	-0.1652565683	-0.1268505794	-0.1420937766	-0.1034420453	-0.0389103567	0.0343786208	0.0994039458	0.137019838	0.1322515736	0.1141998913	0.1108592498	2	0	1	0	0
0	0.5277492351	1	0.5	2	0.6218016774	0	0.5470823178	2	0.6555555556	0.675	0.6472222222	0.6863247863	1	-0.0194444444	-0.0083333333	2.2241106426	0.9999830134	0.0602922074	0.3293425198	0.5921153031	0.7162242097	0.6096118877	0.2647749054	-0.1501964851	-0.3142846158	-0.2992843607	-0.2188372178	-0.1560273523	-0.1285734592	-0.1491847313	-0.0874087227	-0.0031844495	0.0794239516	0.1313910584	0.1525301137	0.133483314	0.1206576185	0.1238728976	2	0	1	0	0
0	0.5263644141	1	0.5	2	0.6171863931	0	0.5470823178	2	0.6472222222	0.6555555556	0.6916666667	0.6863247863	1	-0.0083333333	0.0444444444	2.4476376362	0.9999927914	0.1054106318	0.3866453567	0.6348282588	0.7302697043	0.6108111131	0.2457229822	-0.1712131384	-0.3163638009	-0.2992118866	-0.2279138436	-0.1692032049	-0.136004175	-0.1582014537	-0.0984185354	-0.0087570445	0.071092343	0.1281819673	0.1425617705	0.128925775	0.117753844	0.1180678633	2	0	1	0	0
0	0.5270568766	1	0.5	2	0.6181971893	0	0.5491463565	2	0.6916666667	0.6472222222	0.7277777778	0.6863247863	1	0.0444444444	0.0361111111	2.7573987481	0.9999964809	0.119873023	0.4074826767	0.6516279039	0.7428330853	0.6097619435	0.2441514418	-0.1780053223	-0.3304067354	-0.3073803717	-0.2340935978	-0.178313662	-0.1463813066	-0.1676561535	-0.1180678871	-0.0443940194	0.0498352819	0.1066700953	0.137410395	0.1288866397	0.1078308557	0.1105053832	2	0	1	0	0
0	0.5270568766	1	0.5	2	0.6262487114	0	0.5553280553	2	0.7277777778	0.6916666667	0.7138888889	0.6863247863	1	0.0361111111	-0.0138888889	2.5163753647	0.9999948775	0.1957910557	0.4586352038	0.6514446358	0.7187351099	0.6115093657	0.3381147783	-0.049954401	-0.2939113807	-0.3269982567	-0.2747402415	-0.2038546401	-0.1530743828	-0.1607424194	-0.1263609836	-0.0630481735	0.0085978286	0.0789690562	0.125283659	0.1161834101	0.0964865781	0.0856703878	2	0	1	0	0
0	0.5277492351	1	0.5	2	0.6276369474	0	0.5539557547	2	0.7138888889	0.7277777778	0.6888888889	0.6863247863	1	-0.0138888889	-0.025	2.2024543401	0.9999826707	0.1012362793	0.3553092039	0.5852484659	0.7041113917	0.6162717724	0.3214413544	-0.0826863489	-0.293838656	-0.3078849123	-0.2532631814	-0.1883920553	-0.1381913929	-0.1487176661	-0.0989506825	-0.0295272806	0.0336032926	0.0961119211	0.1300412209	0.1248918249	0.1002709325	0.1028907049	2	0	1	0	0
0	0.5263644141	1	0.5	2	0.6208913655	0	0.5505214477	2	0.6888888889	0.7138888889	0.6944444444	0.6863247863	1	-0.025	0.0055555556	2.2267529844	0.9999888729	0.1245783374	0.3972911944	0.6315852664	0.7164955041	0.5954654746	0.2709823575	-0.1317039943	-0.3103330763	-0.3142128761	-0.2496834987	-0.18208795	-0.1421717946	-0.1676561369	-0.1223047777	-0.0468568279	0.0446522387	0.1074570843	0.1377228126	0.1379571095	0.1119206713	0.1060797697	2	0	1	0	0
0	0.5263644141	1	0.5	2	0.6259715904	0	0.5532692946	2	0.6944444444	0.6888888889	0.6722222222	0.6863247863	1	0.0055555556	-0.0222222222	2.3228259004	0.9999960944	0.1285538945	0.4143806203	0.6481328356	0.7383760005	0.6201573496	0.2823773338	-0.1421717846	-0.3197985214	-0.3114837333	-0.2419041608	-0.1755373607	-0.138269486	-0.1557166348	-0.0965062797	-0.0057319581	0.0775843918	0.1266939168	0.1426397636	0.1312541398	0.1066897736	0.1098172478	2	0	1	0	0
0	0.5270568766	1	0.5	2	0.621040669	0	0.5498339973	2	0.6722222222	0.6944444444	0.6833333333	0.6863247863	1	-0.0222222222	0.0111111111	2.2603395564	0.9999992998	0.1293563423	0.4177379558	0.6561848552	0.761594156	0.6738973723	0.3603419993	-0.090350825	-0.3222263759	-0.3242226111	-0.2517724813	-0.1855494091	-0.1454463165	-0.1703629415	-0.1128835831	-0.0276778228	0.0572179091	0.110603686	0.125048567	0.1199514844	0.0975709296	0.0948497617	2	0	1	0	0
0	0.5270568766	1	0.5	2	0.6271995154	0	0.5539557547	2	0.7166666667	0.6972222222	0.7027777778	0.6998015873	1	0.0194444444	-0.0138888889	2.4192943106	0.99998283	0.1104992061	0.3747675624	0.6067715886	0.696652018	0.6067715896	0.3320245602	-0.0737923554	-0.2925408062	-0.3121184181	-0.256452364	-0.1924959629	-0.143945998	-0.1686652895	-0.1264331461	-0.0499955803	0.0257484944	0.1011570582	0.1385039779	0.1339896726	0.1165326387	0.1205774039	2	0	1	0	0
0	0.5263644141	1	0.5	2	0.624330981	0	0.5525826312	2	0.7027777778	0.7166666667	0.7	0.6998015873	1	-0.0138888889	-0.0027777778	2.2620196568	0.999987551	0.0850542438	0.3686606564	0.62163445	0.7228755433	0.5907710489	0.1897810867	-0.2286078297	-0.3349709454	-0.2945856578	-0.2230236065	-0.1691684967	-0.1395605491	-0.1629024458	-0.1236593821	-0.0565243027	0.0263903511	0.0921462747	0.1354747227	0.14751516	0.1315064411	0.119147885	2	0	1	0	0
0	0.5270568766	1	0.5	2	0.6211480098	0	0.5518957673	2	0.7	0.7027777778	0.7388888889	0.6998015873	1	-0.0027777778	0.0388888889	2.4399653984	0.9999966461	0.1197606008	0.4109761483	0.6538715628	0.7382144487	0.6169852782	0.2870748236	-0.1379349194	-0.3174942192	-0.3071729834	-0.238324397	-0.175200013	-0.1409417594	-0.1718038458	-0.1371828057	-0.0651528951	0.0174025251	0.0867406969	0.1310584795	0.1365118735	0.1279212026	0.1264739276	2	0	1	0	0
0	0.5270568766	1	0.5	2	0.6300123641	0	0.5553280553	2	0.7388888889	0.7	0.6972222222	0.6998015873	1	0.0388888889	-0.0416666667	2.4494670691	0.9999995503	0.1753606728	0.4690626448	0.6854383922	0.761594156	0.646118128	0.317047009	-0.1286548158	-0.3483666761	-0.3630615281	-0.2994973607	-0.2285292897	-0.1794543829	-0.1933736907	-0.153751908	-0.0721642421	0.0136117931	0.0861237602	0.1218839647	0.1252096712	0.1017517367	0.102264322	2	0	1	0	0
0	0.5277492351	1	0.5	2	0.6301861665	0	0.5518957673	2	0.6972222222	0.7388888889	0.6694444444	0.6998015873	1	-0.0416666667	-0.0277777778	2.0578330879	0.9999891643	0.1399668537	0.3970198017	0.5992827185	0.7010194077	0.6217869756	0.3569299359	-0.0218761633	-0.2806741458	-0.3289977702	-0.2949640326	-0.2276650642	-0.1693295006	-0.1579770487	-0.128084235	-0.0688450091	-0.0040195346	0.0577840664	0.1053592392	0.1177587489	0.1032073529	0.0929679499	2	0	1	0	0
0	0.5284414867	1	0.5	2	0.6277786751	0	0.5512087053	2	0.6694444444	0.6972222222	0.6611111111	0.6998015873	1	-0.0277777778	-0.0083333333	2.1780059424	0.999949321	0.0599520531	0.3147341834	0.5591025066	0.6781202329	0.595765778	0.3144354851	-0.0901737393	-0.2901138105	-0.2972323668	-0.2433988852	-0.1827409099	-0.1316693243	-0.1422412168	-0.1072438821	-0.0486107566	0.0088883769	0.0603442925	0.1111745415	0.1279823364	0.1121157551	0.1111745457	2	0	1	0	0
0	0.5270568766	1	0.5	2	0.6217558267	0	0.5491463565	2	0.6611111111	0.6694444444	0.675	0.6998015873	1	-0.0083333333	0.0138888889	2.3514328263	0.9999497612	0.0439795649	0.3076232591	0.5892041957	0.702323671	0.5634169998	0.1770470612	-0.2079293367	-0.3107713363	-0.2740184771	-0.199429394	-0.1454065785	-0.1305289934	-0.1546418812	-0.1074077193	-0.0388499844	0.0334079197	0.0925365928	0.1255359654	0.1250261127	0.1076534813	0.1134658403	2	0	1	0	0
0	0.5263644141	1	0.5	2	0.6226950133	0	0.5512087053	2	0.675	0.6611111111	0.6916666667	0.6998015873	1	0.0138888889	0.0166666667	2.4942184273	0.9999930436	0.0868846354	0.3667254932	0.6316004187	0.7353729991	0.6025127914	0.2003046219	-0.2235748301	-0.3428202929	-0.3101722182	-0.2310413288	-0.1682022668	-0.1446763717	-0.167960651	-0.1255563547	-0.0606745887	0.0088883822	0.0741220558	0.1235165578	0.1293883013	0.1117474786	0.107960656	2	0	1	0	0
0	0.5277492351	1	0.5	2	0.6199533401	0	0.5498339973	2	0.6916666667	0.675	0.725	0.6998015873	1	0.0166666667	0.0333333333	2.5529286108	0.9999944828	0.0403394448	0.3129971057	0.6160090859	0.7477185716	0.62513071	0.2090391872	-0.2280579392	-0.3453775378	-0.3054456441	-0.2239684567	-0.1632049622	-0.1417539766	-0.1679606539	-0.1162464957	-0.0487554463	0.0256656695	0.0853422052	0.1243122003	0.1213123951	0.101915767	0.1047035262	2	0	1	0	0
0	0.5263644141	1	0.5	2	0.6241691057	0	0.5532692946	2	0.725	0.6916666667	0.7111111111	0.6998015873	1	0.0333333333	-0.0138888889	2.5005751239	0.9999985664	0.1247813557	0.4295700366	0.6673112787	0.7543660092	0.6267940349	0.2657966719	-0.1684438576	-0.3486579134	-0.3423813853	-0.2738651548	-0.2027694712	-0.161268253	-0.1805770679	-0.1350272345	-0.053611735	0.0263489454	0.0945287869	0.1191070383	0.1092096345	0.0959043995	0.0917970305	2	0	1	0	0
0	0.5270568766	1	0.5	2	0.6235519627	0	0.5518957673	2	0.7111111111	0.725	0.7	0.6998015873	1	-0.0138888889	-0.0111111111	2.2380672493	0.9999928633	0.1885824074	0.4469946438	0.6390142335	0.7096397587	0.6094353226	0.3537437606	-0.0299926604	-0.291934411	-0.3284803221	-0.2779233099	-0.2096731513	-0.1587648466	-0.1752401708	-0.1445749364	-0.0839433799	-0.0105250521	0.0603649394	0.1066703682	0.1170435589	0.1074077223	0.1009109618	2	0	1	0	0
0	0.5277492351	1	0.5	2	0.6249415115	0	0.5525826312	2	0.7	0.7111111111	0.7111111111	0.6998015873	1	-0.0111111111	0.0111111111	2.315027469	0.9999904498	0.1419163975	0.3959371269	0.6178058589	0.7089808896	0.6121890148	0.3419423418	-0.0421596457	-0.2800632496	-0.3232950509	-0.2750912892	-0.2102277131	-0.1632049624	-0.1829011299	-0.1459541269	-0.0793949483	-0.0023205625	0.0752758611	0.1185350845	0.1255359622	0.11242263	0.108063047	2	0	1	0	0
0	0.5277492351	1	0.5	2	0.6257812327	0	0.5532692946	2	0.7222222222	0.6916666667	0.7194444444	0.7222222222	1	0.0305555556	-0.0027777778	2.5162541325	0.9999953723	0.0581031023	0.3373411081	0.6178878328	0.7388960589	0.6377767527	0.2687484264	-0.1708766957	-0.3337793481	-0.3182779144	-0.2456200375	-0.1811960247	-0.1441285467	-0.1752593195	-0.1250380287	-0.0634885113	0.0131497075	0.0792806245	0.1081075313	0.0918741079	0.0715997362	0.0778975285	2	0	1	0	0
0	0.5263644141	1	0.5	2	0.6298936344	0	0.5573849184	2	0.7194444444	0.7222222222	0.725	0.7222222222	1	-0.0027777778	0.0055555556	2.3391618921	0.9999986949	0.1236678594	0.4129554107	0.658166738	0.7586990625	0.6445706285	0.275993556	-0.1633479703	-0.3466912959	-0.3335642616	-0.2538653626	-0.1885983487	-0.1550128764	-0.188326011	-0.1482341308	-0.0808437553	-0.0002420328	0.0541623553	0.0970713474	0.0979703369	0.0732650185	0.048650547	2	0	1	0	0
0	0.5270568766	1	0.5	2	0.6266145514	0	0.5553280553	2	0.725	0.7194444444	0.7277777778	0.7222222222	1	0.0055555556	0.0027777778	2.3769789235	0.9999957016	0.0784788692	0.3744129945	0.6334009673	0.7426096832	0.6236400396	0.2217483761	-0.207819646	-0.3373589823	-0.3052405005	-0.2258867201	-0.1634264904	-0.1262290904	-0.159183264	-0.1218601111	-0.0604345394	0.0048607924	0.0660593701	0.1029817468	0.0912140983	0.0687899347	0.0616602834	2	0	1	0	0
0	0.5263644141	1	0.5	2	0.6253343645	0	0.5573849184	2	0.7277777778	0.725	0.7527777778	0.7222222222	1	0.0027777778	0.025	2.4176178039	0.9999969008	0.1020237869	0.4008719375	0.6554717542	0.7462066944	0.6141833845	0.2225920277	-0.2084371043	-0.3419979501	-0.3055331137	-0.2281822891	-0.1725209729	-0.1485497337	-0.1746140935	-0.1244026478	-0.0465375568	0.0208320007	0.0866918824	0.1160738849	0.1153376089	0.0885932604	0.0678865507	2	0	1	0	0
0	0.5270568766	1	0.5	2	0.6289191232	0	0.5580701059	2	0.7527777778	0.7277777778	0.7638888889	0.7222222222	1	0.025	0.0111111111	2.4955197437	0.9999986869	0.0971912153	0.3909393984	0.6517285395	0.7572573836	0.6466408484	0.2806081453	-0.1720512839	-0.3491731867	-0.3328470612	-0.2605705898	-0.193495523	-0.1463398785	-0.1897846413	-0.1567840095	-0.0799419991	0.0048809623	0.0779576707	0.1174863856	0.1177250719	0.0978704561	0.0771356994	2	0	1	0	0
0	0.5270568766	1	0.5	2	0.628329923	0	0.5580701059	2	0.7638888889	0.7527777778	0.7527777778	0.7222222222	1	0.0111111111	-0.0111111111	2.3487635594	0.9999979085	0.0521309949	0.3497928837	0.631658598	0.7542821986	0.6516357188	0.2703943512	-0.188909564	-0.349031492	-0.3290394594	-0.2644016511	-0.2001649654	-0.1579248695	-0.1851725199	-0.1427852574	-0.077917581	-0.0022388006	0.0698337105	0.1140637529	0.1168498292	0.0813046068	0.0523321422	2	0	1	0	0
0	0.5256718502	1	0.5	2	0.6336280677	0	0.5594398153	2	0.7527777778	0.7638888889	0.7	0.7222222222	1	-0.0111111111	-0.0527777778	2.1390882008	0.9999938541	0.142706222	0.4297422289	0.6411624961	0.7276711211	0.6049052003	0.236577549	-0.1957465465	-0.3414991618	-0.3148660764	-0.2400779217	-0.175572092	-0.1350314421	-0.1642508631	-0.1197931105	-0.0428136689	0.0346573534	0.0855507556	0.1040193194	0.0951329821	0.063508599	0.0661396891	2	0	1	0	0
0	0.5277492351	1	0.5	2	0.6246855686	0	0.5512087053	2	0.7	0.7527777778	0.6777777778	0.7222222222	1	-0.0527777778	-0.0222222222	2.0179277078	0.9999883813	0.0940335877	0.3618593989	0.6001260178	0.7100542579	0.6244774273	0.3488189277	-0.0476444141	-0.2798647215	-0.3023111842	-0.2422055388	-0.175024704	-0.1300380353	-0.1591046275	-0.1172476915	-0.0661396947	-0.0035498068	0.0676657022	0.1160539877	0.1191568991	0.0951929428	0.0789198464	2	0	1	0	0
0	0.5263644141	1	0.5	2	0.6229364485	0	0.5525826312	2	0.6777777778	0.7	0.7166666667	0.7222222222	1	-0.0222222222	0.0388888889	2.3350505221	0.9999959564	0.1115547449	0.3980580805	0.6480469208	0.7425734856	0.6085755587	0.2152950818	-0.2033381093	-0.3416416916	-0.3122472356	-0.2299405218	-0.163740569	-0.141520497	-0.1809619364	-0.1335460155	-0.0505820471	0.034637207	0.0949730837	0.129066325	0.1245813573	0.1094428907	0.0902539341	2	0	1	0	0
0	0.5263644141	1	0.5	2	0.6252457981	0	0.5532692946	2	0.7166666667	0.6777777778	0.7166666667	0.7222222222	1	0.0388888889	0	2.5830010362	0.9999979725	0.1105587114	0.4079575598	0.667316453	0.7574981856	0.610401045	0.1910869874	-0.2267287212	-0.3456971797	-0.3133389995	-0.2395456593	-0.1773698951	-0.1464188242	-0.1895124328	-0.1287093081	-0.0492541823	0.030426262	0.095692585	0.1306724943	0.1068914123	0.0812044193	0.0869721246	2	0	1	0	0
0	0.530517575	2	0.5	2	0.6065840019	1	0.5539557547	2	0.9	0.8722222222	0.8416666667	0.8580808081	1	0.0277777778	-0.0583333333	2.2033018424	0.9996426425	0.3435525241	0.2696605309	0.4391668941	0.6821334788	0.5275134096	0.1071618308	-0.2151890032	-0.1924156337	-0.0953317373	-0.068154545	-0.0522277783	-0.0441820469	0.0028801761	0.0338652149	0.113705444	0.2059683219	0.2990425064	0.3525700286	0.2384099502	0.0814722428	0.0270671215	2	0	1	0	0
0	0.530517575	2	0.5	2	0.6048591016	1	0.5491463565	2	0.8416666667	0.9	0.8583333333	0.8580808081	1	-0.0583333333	0.0166666667	1.9972394947	0.9992713367	0.3202639903	0.1980948855	0.4165813678	0.6633760793	0.493232111	0.0444694958	-0.2614956281	-0.233344086	-0.1373394362	-0.1061652334	-0.0923341748	-0.0806496302	-0.0169914463	0.0391864373	0.134936647	0.2399713089	0.3190033541	0.3584515306	0.2438353883	0.1065923708	0.0364182201	2	0	1	0	0
0	0.5312093734	2	0.5	2	0.6040240048	1	0.5429494495	2	0.8583333333	0.8416666667	0.8361111111	0.8580808081	1	0.0166666667	-0.0222222222	2.2664553877	0.9999984023	0.4998507323	0.4294689801	0.601590795	0.7535567253	0.6225258592	0.2420737757	-0.1198134056	-0.1327091323	-0.1138120487	-0.1300555718	-0.1315064144	-0.1276126439	-0.01954676	0.0088203353	0.0310240331	0.1191036336	0.2358276237	0.2505957637	0.1304448782	0.0205904138	-0.0128161163	2	0	1	0	0
0	0.5298256594	1	0.5	2	0.6006275034	1	0.5436386872	2	0.8361111111	0.8583333333	0.8444444444	0.8580808081	1	-0.0222222222	0.0083333333	2.1553796693	0.999993377	0.3995380259	0.4157478964	0.5946076589	0.761594156	0.590026924	0.1023192396	-0.1903346159	-0.126762567	-0.0953317407	-0.0960451939	-0.090763355	-0.0900491948	-0.0349799554	0.029369439	0.1033166599	0.1911672304	0.300451508	0.3194883445	0.2038989006	0.101179097	0.0530894437	2	0	1	0	0
0	0.5298256594	1	0.5	2	0.5995731096	1	0.5470823178	2	0.8444444444	0.8361111111	0.825	0.8580808081	1	0.0083333333	-0.0194444444	2.244467288	0.9999259903	0.3098870911	0.3462486828	0.5141864797	0.7343370362	0.5455609245	0.008208336	-0.2405819342	-0.1472511601	-0.1115727203	-0.1026042437	-0.0841896473	-0.0771791659	-0.0290456931	0.027103095	0.1187132004	0.2234823511	0.3145660135	0.3396409724	0.1970223718	0.0789682985	0.0509710543	2	0	1	0	0
1	0.5298256594	1	0.5332840383	1	0.5917564124	1	0.5429494495	2	0.825	0.8444444444	0.8888888889	0.8580808081	1	-0.0194444444	0.0638888889	2.2919893082	0.9999237577	0.3795052929	0.3444730404	0.5286557491	0.7303305939	0.5111077785	0.0074883437	-0.2080358937	-0.1278959469	-0.1004663578	-0.1008940049	-0.0770359951	-0.062131837	-0.0099362997	0.013572037	0.0783600421	0.1748829776	0.2733954904	0.3061070027	0.1565363907	0.0343686562	-0.0096123186	2	0	1	0	0
0	0.5298256594	1	0.5	2	0.6014393378	1	0.5477705142	2	0.8888888889	0.825	0.8805555556	0.8580808081	1	0.0638888889	-0.0083333333	2.5149630785	0.9999455479	0.3963564295	0.340277804	0.5660838657	0.7148503197	0.5225063196	0.0919772084	-0.1937327234	-0.1574142728	-0.1053108398	-0.1060940428	-0.0986128035	-0.0909061708	-0.0146158968	0.0288658254	0.1102925747	0.1922769473	0.2871954572	0.3294096427	0.1957416624	0.0724534577	0.0249084376	2	0	1	0	0
0	0.5312093734	2	0.5	2	0.6069266543	1	0.548458528	2	0.8805555556	0.8888888889	0.8361111111	0.8580808081	1	-0.0083333333	-0.0444444444	2.0771182419	0.9999672708	0.3555929309	0.3172883689	0.5288632391	0.7309347959	0.5840811347	0.16579406	-0.2184827161	-0.2160128943	-0.1303033066	-0.1113593762	-0.098577144	-0.0852262142	-0.013392057	0.0367058477	0.1104348309	0.206830032	0.2973368515	0.3401823066	0.2109273757	0.0898349176	0.0390066878	2	0	1	0	0
0	0.5312093734	2	0.5	2	0.6057415753	1	0.5477705142	2	0.8361111111	0.8805555556	0.8555555556	0.8580808081	1	-0.0444444444	0.0194444444	2.0707011819	0.9997718008	0.3411688485	0.3058459576	0.4570054226	0.6937383189	0.5061973094	0.0151198184	-0.2804426451	-0.2256019446	-0.1382224016	-0.1237503808	-0.1175417051	-0.1094389559	-0.0314196633	0.0544535727	0.1598359163	0.2511355391	0.3443778476	0.3475155052	0.1985445171	0.0677245192	0.018287134	2	0	1	0	0
0	0.530517575	2	0.5	2	0.6012705366	1	0.5463939414	2	0.8722222222	0.8638888889	0.8583333333	0.8675	1	0.0083333333	-0.0138888889	2.2235109756	0.9924295585	0.3106415292	0.1904886259	0.3022620866	0.5837499052	0.3783392721	-0.0785220767	-0.2630717514	-0.1853698079	-0.1003284013	-0.0780700418	-0.0637400349	-0.0463585018	0.0076181056	0.0133027329	0.0291760718	0.1248753877	0.2149106407	0.2836564758	0.2397813867	0.1009286848	0.0107636853	2	0	1	0	0
1	0.530517575	2	0.533975341	1	0.5974119111	1	0.5477705142	2	0.8583333333	0.8722222222	0.85	0.8675	1	-0.0138888889	-0.0083333333	2.1405252419	0.999478575	0.3346803493	0.308585427	0.43388725	0.6819645445	0.485047257	-0.0174330441	-0.2392097434	-0.1537142745	-0.1016789379	-0.0874052621	-0.0801792518	-0.0616258739	-0.0235326484	0.0406461842	0.1297972898	0.23133296	0.3225092432	0.3652747477	0.2102784944	0.0687211066	0.0254644774	2	0	1	0	0
0	0.5291336291	1	0.5	2	0.5960199706	1	0.548458528	2	0.85	0.8583333333	0.8888888889	0.8675	1	-0.0083333333	0.0388888889	2.2682787125	0.9997417181	0.3651433628	0.3122843318	0.4922026043	0.6999447681	0.4685312205	-0.0403056275	-0.2309024318	-0.1356058206	-0.0727939967	-0.0581514246	-0.0493836941	-0.0409110557	0.0010991492	0.0322432129	0.1190506791	0.2162116967	0.315700819	0.3680304892	0.2314764422	0.0840944288	0.0298577063	2	0	1	0	0
0	0.5298256594	1	0.5	2	0.6020153017	1	0.5546420091	2	0.8888888889	0.85	0.9083333333	0.8675	1	0.0388888889	0.0194444444	2.4285735217	0.9986473194	0.3336029116	0.1907808288	0.4233684313	0.6508423177	0.4389499097	-0.0299713128	-0.2479090905	-0.1711314518	-0.0845460195	-0.0569425812	-0.042575824	-0.0257674912	0.0075044076	0.048324974	0.1287537741	0.2364921682	0.3263074829	0.3966340787	0.2845275459	0.1142652893	0.0360668238	2	0	1	0	0
0	0.530517575	2	0.5	2	0.6043062632	1	0.5539557547	2	0.9083333333	0.8888888889	0.8555555556	0.8675	1	0.0194444444	-0.0527777778	2.161496885	0.9998919079	0.3555131265	0.2789446374	0.477826377	0.7144918808	0.5594619944	0.1045288474	-0.2240018038	-0.1955971175	-0.1160604443	-0.095673726	-0.0791247296	-0.0714366287	-0.0251614551	0.0389433042	0.1130681033	0.2146214135	0.3036390151	0.3805455183	0.2832033304	0.1254723123	0.0531261027	2	0	1	0	0
0	0.5298256594	1	0.5	2	0.602857655	1	0.5491463565	2	0.8555555556	0.9083333333	0.8805555556	0.8675	1	-0.0527777778	0.025	2.0215107855	0.9910861996	0.3443377013	0.1600728653	0.3070757651	0.5705053142	0.2878680636	-0.1705427358	-0.2837958885	-0.1836124444	-0.1328143949	-0.1206943927	-0.1112717036	-0.1030665947	-0.0280399388	0.0366724559	0.1275608443	0.2222731109	0.3139252701	0.3498048309	0.2124510122	0.0703052993	-0.0064432215	2	0	1	0	0
0	0.5298256594	1	0.5	2	0.6015112694	1	0.5505214477	2	0.8805555556	0.8555555556	0.8666666667	0.8675	1	0.025	-0.0138888889	2.2987617201	0.9955860676	0.3214561014	0.3603048722	0.3577626409	0.6061738066	0.3826180417	-0.0709841077	-0.1370936925	-0.0468123237	-0.0315238073	-0.0251614472	-0.0253129567	-0.0248584263	0.0060263059	0.0337954881	0.0893607476	0.1650543822	0.2578428437	0.3438030773	0.2797832866	0.1105229973	0.0281914362	2	0	1	0	0
0	0.530517575	2	0.5	2	0.6021726965	1	0.5491463565	2	0.8666666667	0.8805555556	0.8305555556	0.8675	1	-0.0138888889	-0.0361111111	2.0809313112	0.9999938275	0.4219986979	0.3795078229	0.5816471602	0.761594156	0.5975688899	0.1406620944	-0.1973461803	-0.1532701627	-0.0887591328	-0.0696263951	-0.0646459206	-0.0531638979	-0.0131132584	0.0272446186	0.0913155545	0.1874185508	0.2912016112	0.3688166563	0.2615188069	0.1009286776	0.0340983528	2	0	1	0	0
1	0.5676383757	2	0.5159667915	0	0.6694011516	0	0.5812185779	2	1.1083333333	0.8	0.8416666667	0.9317901235	1	0.3083333333	-0.2666666667	3.1185461874	0.9997744587	-0.0134603887	-0.013924484	-0.0015085863	0.0105596866	-0.0192610597	-0.1125487873	-0.2856519834	-0.5931912819	-0.6790772368	-0.508173586	-0.3066127414	-0.1105146081	0.0062953492	0.0312059209	0.1222765316	0.1878247516	0.2353679005	0.244554289	0.1871529583	0.1215906144	0.0556439778	2	0	1	0	0
1	0.5353575526	2	0.5395008458	1	0.5989618514	1	0.5662743942	2	0.8416666667	1.1083333333	0.9805555556	0.9317901235	1	-0.2666666667	0.1388888889	1.3691497401	0.5054938708	-0.4557342274	-0.2417154852	-0.04380787	0.0052509807	0.0030751772	0.0024949584	0.0023789149	0.0015375905	0.0042356114	0.0046997818	0.0018277033	0.0078908847	0.0722856705	0.130270101	0.1969880784	0.2275702097	0.2258089038	0.1876008416	0.1442743983	0.0839345526	0.039550643	2	0	1	0	0
0	0.5683199835	2	0.5	2	0.665416756	0	0.5818945459	2	0.9805555556	0.8416666667	0.9638888889	0.9317901235	1	0.1388888889	-0.0166666667	2.7854356203	0.9998229377	-0.010443654	-0.0140404991	0.0016246252	0.0183330301	-0.0146206014	-0.1026845919	-0.2853322166	-0.5610066823	-0.6807619875	-0.5470131964	-0.3473332779	-0.1624326765	0.0069625762	0.0415201633	0.1334628534	0.1895034663	0.2253683473	0.2102247025	0.1498376124	0.088772081	0.0287711737	2	0	1	0	0
0	0.5676383757	2	0.5	2	0.6591479778	0	0.5744425168	2	0.9638888889	0.9805555556	0.9222222222	0.9317901235	1	-0.0166666667	-0.0416666667	1.9320484588	0.9995575243	0.0048738483	0.0084710758	0.0170569412	0.0312059288	-0.0044096701	-0.0978597228	-0.2795657389	-0.5629122294	-0.6593471355	-0.5069675074	-0.2987067022	-0.0971700746	0.0018567157	0.0609638819	0.1209045836	0.19229886	0.2199640901	0.2366828605	0.2012229646	0.1307263754	0.0718239008	2	0	1	0	0
1	0.5669565118	2	0.5166604966	0	0.6585160559	0	0.5730838567	2	0.9222222222	0.9638888889	0.9138888889	0.9317901235	1	-0.0416666667	-0.0083333333	1.9330659937	0.999770717	-0.0171729433	-0.0100955503	0.0009283657	0.0098634944	-0.0133443614	-0.100617372	-0.3201122338	-0.6188821854	-0.6722026404	-0.484653304	-0.2746375752	-0.0820618111	0.004496707	0.0607326507	0.1227337448	0.1983262114	0.2245971474	0.2242665467	0.1742437606	0.1132361804	0.0689371519	2	0	1	0	0
0	0.5669565118	2	0.5	2	0.6620849016	0	0.5785116792	2	0.9138888889	0.9222222222	0.8944444444	0.9317901235	1	-0.0083333333	-0.0194444444	2.0780635216	0.9992294015	-0.0073106931	-0.0098634892	-0.0011604483	0.0113719018	-0.0330607227	-0.1438198511	-0.3482513565	-0.6113803507	-0.6099977745	-0.4286658201	-0.2373400127	-0.0446765061	0.0043516533	0.0651248854	0.1500644829	0.2060060009	0.2305390261	0.2046721797	0.1383605947	0.078401113	0.0203050534	2	0	1	0	0
1	0.5662743942	2	0.5173541374	0	0.6490467625	0	0.5737633259	2	0.8944444444	0.9138888889	0.9611111111	0.9317901235	1	-0.0194444444	0.0666666667	2.1978399503	0.9986008509	-0.0048738469	0.0011604442	0.0035973685	0.0107917447	-0.0269159024	-0.1363111906	-0.3550648305	-0.5999926603	-0.5904013733	-0.3960217353	-0.1956492222	-0.0351760784	0.0043226425	0.0400140872	0.111746687	0.1818845643	0.2124419432	0.2143248796	0.1782915689	0.1147251637	0.0657026255	2	0	1	0	0
0	0.5669565118	2	0.5	2	0.6531045612	0	0.5744425168	2	0.8	0.7555555556	0.85	0.7871212121	1	0.0444444444	0.05	2.6666162062	0.999978275	-0.0237560144	-0.0182660812	-0.0085965487	0.0028655786	-0.0266197807	-0.1254218545	-0.3685418598	-0.6758032438	-0.7197840841	-0.5367818797	-0.3151014826	-0.1123560528	0.003044676	0.0455789768	0.1217770242	0.1982873936	0.247855617	0.251326415	0.2068747859	0.1178934329	0.0412887124	2	0	1	0	0
1	0.5676383757	2	0.5118033622	0	0.6626896272	0	0.5703632449	2	0.85	0.8	0.725	0.7871212121	1	0.05	-0.125	2.2360852643	0.9999749826	-0.0182660805	-0.0132525616	0.0016715879	0.0181467183	-0.0214885897	-0.1241289112	-0.3425725929	-0.6384539849	-0.7246393431	-0.5729616452	-0.3311409088	-0.1292981162	0.002119337	0.0460555735	0.1208358849	0.1908202365	0.2531152724	0.2710176855	0.242693681	0.1641094628	0.0923897231	2	0	1	0	0
0	0.5512087053	2	0.5	2	0.6200349255	0	0.5635434368	2	0.725	0.85	0.8444444444	0.7871212121	1	-0.125	0.1194444444	1.9855536974	0.9999977384	-0.1289458975	-0.3289066245	-0.6071889326	-0.7611299345	-0.6724159096	-0.4557434389	-0.238531673	-0.0433446635	0.0041192577	0.0003880474	0.0043879005	0.0046565436	0.0321074046	0.10267856	0.1624824442	0.2195254832	0.2479676767	0.2415696874	0.1981726868	0.1261269209	0.06676421	2	0	1	0	0
1	0.5690013326	2	0.5111092825	0	0.6658937958	0	0.5758000536	2	0.8444444444	0.725	0.7638888889	0.7871212121	1	0.1194444444	-0.0805555556	2.7643447196	0.9999867562	-0.0222046435	-0.0194596486	-0.0019103887	0.0096710495	-0.0163562638	-0.0925080997	-0.2989887452	-0.5981413327	-0.7344678758	-0.6281569379	-0.4106600333	-0.2051598116	0.0040297088	0.048795581	0.1222475136	0.2028712121	0.2477435481	0.2575798353	0.1989755235	0.1226003411	0.0428381602	2	0	1	0	0
0	0.5512087053	2	0.5	2	0.6231125522	0	0.5587550723	2	0.7638888889	0.8444444444	0.7333333333	0.7871212121	1	-0.0805555556	-0.0305555556	1.8685183217	0.9999747343	-0.0981871539	-0.297465821	-0.5865941274	-0.7340827064	-0.603558125	-0.3776889079	-0.1787981488	-0.0168038858	0.0033133217	0.0029849768	0.0045968453	0.0073429323	0.0460555716	0.1190706647	0.1882878329	0.2318768509	0.2615885677	0.254679111	0.2159996323	0.1478005152	0.0861119798	2	0	1	0	0
1	0.5512087053	2	0.5194346481	0	0.6198892667	0	0.5587550723	2	0.7333333333	0.7638888889	0.775	0.7871212121	1	-0.0305555556	0.0416666667	2.2686190569	0.9999853221	-0.1023241236	-0.3041985996	-0.6086943339	-0.7341928029	-0.6177089014	-0.3933429817	-0.1992908561	-0.0178781581	0.0031043749	0.0030148264	0.014446325	0.0290059212	0.0693788238	0.1424238132	0.2005804032	0.2588056748	0.2752164147	0.2618110141	0.2087026899	0.1385614117	0.0717549213	2	0	1	0	0
1	0.5512087053	2	0.5187412159	0	0.6272123062	0	0.5628600882	2	0.775	0.7333333333	0.7388888889	0.7871212121	1	0.0416666667	-0.0361111111	2.4551500611	0.9999949432	-0.1132990891	-0.2889534228	-0.5817175169	-0.7592146222	-0.6626192747	-0.4315801996	-0.217251398	-0.0381296229	0.0043879004	0.0033431722	0.001850689	0.0034028698	0.0526065365	0.1197768449	0.1981726895	0.2531152778	0.2684713166	0.2502075058	0.1879423141	0.1160091723	0.0505821502	2	0	1	0	0
1	0.5512087053	2	0.5235935763	0	0.6204340639	0	0.5662743942	2	0.7388888889	0.775	0.8805555556	0.7871212121	1	-0.0361111111	0.1416666667	2.477612068	0.9999894577	-0.1103514313	-0.311655931	-0.5877676184	-0.7363319747	-0.6352602389	-0.4271978877	-0.2358272941	-0.0458172779	0.009133801	0.0039700096	0.0025073845	0.0012536922	0.0173111863	0.0816067182	0.1612034553	0.218729822	0.2521092508	0.2365037262	0.1833309301	0.0944018046	0.0389045649	2	0	1	0	0
0	0.5683199835	2	0.5	2	0.6687283873	0	0.5778342099	2	0.8805555556	0.7388888889	0.7916666667	0.7871212121	1	0.1416666667	-0.0888888889	2.8414080916	0.9999863847	-0.0316302913	-0.0316302906	-0.013849448	0.0046565429	-0.0263811517	-0.1310587651	-0.3491948025	-0.6226318117	-0.7250360156	-0.6093703346	-0.3878791952	-0.189324124	0.0050744318	0.0759111136	0.1599239203	0.2271262214	0.2622558163	0.2342480403	0.1534016814	0.0716361354	0.0142075753	2	0	1	0	0
0	0.5676383757	2	0.5	2	0.6538466381	0	0.5778342099	2	0.9694444444	0.9555555556	1.0805555556	0.9802777778	1	0.0138888889	0.1111111111	2.2948447863	0.9999016139	0.0075552341	0.0093328442	0.0199968683	0.0340970946	-0.0002222222	-0.1115314786	-0.3062818235	-0.5984711907	-0.699779794	-0.5432562735	-0.3279662692	-0.1178635637	0.0063608784	0.0527276143	0.1349464247	0.1909557203	0.2117425928	0.1717219918	0.1190959837	0.0645751893	0.0155539418	2	0	1	0	0
0	0.5669565118	2	0.5	2	0.6638429696	0	0.5696824205	2	1.0805555556	0.9694444444	0.8138888889	0.9802777778	1	0.1111111111	-0.2666666667	1.9972201845	0.9999263055	-0.0064442069	-0.0027777078	0.0089995515	0.0269928221	-0.0125546006	-0.1427919183	-0.3669379491	-0.6557469064	-0.6894886894	-0.5007604687	-0.2906197795	-0.072620257	0.0050276194	0.0369822707	0.1077992194	0.1651366638	0.2052596436	0.2154539641	0.1832359808	0.1299250808	0.0801591252	2	0	1	0	0
0	0.5353575526	2	0.5	2	0.5918407716	1	0.5573849184	2	0.8138888889	1.0805555556	0.9444444444	0.9802777778	1	-0.2666666667	0.1305555556	1.3958285206	0.5091379121	-0.4780336918	-0.2686776874	-0.0600927835	0.0077218911	0.0014999635	0.0031943602	-0.000277771	0.0019443971	0.002916591	0.0024721602	0.0027499296	0.0125823776	0.0662346845	0.1201911629	0.1667573963	0.2019580703	0.2126975308	0.2066427861	0.1711827784	0.128832597	0.0904169651	2	0	1	0	0
0	0.5669565118	2	0.5	2	0.6437274232	0	0.5751214269	2	0.9444444444	0.8138888889	1.1361111111	0.9802777778	2	0.1305555556	0.1916666667	3.3102058274	0.9999151824	-0.0153317724	-0.0131100523	-0.0025554857	0.0093328518	-0.0241058775	-0.1469254385	-0.372501327	-0.6588390772	-0.6880286873	-0.4869838074	-0.2631020247	-0.0592624417	0.0044443128	0.0431943304	0.1136157828	0.1736622997	0.2082376978	0.1999322511	0.1570197901	0.1067009168	0.061697885	2	0	1	0	0
0	0.5676383757	2	0.5	2	0.6628995389	0	0.5703632449	2	1.1361111111	0.9444444444	0.8694444444	0.9802777778	1	0.1916666667	-0.2666666667	2.2892393451	0.999942196	-0.0095550502	-0.0091106524	0.002333272	0.0183308518	-0.0243279745	-0.1536585496	-0.3659760738	-0.6417859687	-0.693085413	-0.5241078088	-0.3258823692	-0.1246236298	0.003722119	0.0210241932	0.0768464149	0.1280676697	0.1669734319	0.1855972332	0.1709670629	0.1246783142	0.0839113875	2	0	1	0	0
0	0.5353575526	2	0.5	2	0.5927008527	1	0.5655920254	2	0.8694444444	1.1361111111	1.1055555556	0.9802777778	1	-0.2666666667	0.2361111111	1.4116374628	0.5139899807	-0.4921370095	-0.2911029052	-0.0856487732	0.0092772971	0.0031943593	2.7776820115788E-005	0.0036110126	0.0005277658	0.0001111083	0.0037498957	0.00319436	0.0049720659	0.0497355568	0.0981254014	0.1410499887	0.1716141555	0.1722610956	0.1497506929	0.1085678754	0.0625833209	0.0302123263	2	0	1	0	0
0	0.5676383757	2	0.5	2	0.6630936351	0	0.5710438031	2	1.1055555556	0.8694444444	0.8444444444	0.9802777778	1	0.2361111111	-0.2611111111	2.6292426103	0.999913642	-0.0152206962	-0.0124435138	-0.001666627	0.0092217473	-0.0304343401	-0.1474689525	-0.3455002857	-0.6198497426	-0.687267286	-0.5272436044	-0.3298489554	-0.1347555223	0.0023054981	0.0210519589	0.067562023	0.122271198	0.1694566133	0.1980114786	0.1836654578	0.1375635224	0.0970248956	2	0	1	0	0
