A1	A2	A3	A4	A5	A6	A7	A8	A9	A10	A11	A12	A13	A14	A15	A16	A17	A18	A19	A20	A21	A22	A23	A24	A25	A26	A27	A28	A29	A30	A31	A32	A33	A34	A35	A36	A37	A38	A39	Clase	C1	C2	C3	C4
1	0.5256718502	1	0.5401908798	1	0.6373000202	0	0.5505214477	2	0.8416666667	0.8388888889	0.8222222222	0.803030303	1	0.002777777778	-0.01944444444	2.219088549	0.9871602983	-0.05207376456	-0.08685384428	0.2975463814	0.6743133865	0.2994311976	-0.01017776782	-0.005368624389	-0.01599282153	-0.01386819807	-0.02068882732	-0.01744643347	-0.01319723634	-0.02404256636	-0.006710748554	0.004893288249	0.03007788928	0.04403939223	0.04392776194	0.04269974729	0.02214217355	0.02236576209	1	1	0	0	0
1	0.5263644141	1	0.5395008458	1	0.6247558373	0	0.5367392212	1	0.8222222222	0.8416666667	0.8083333333	0.803030303	1	-0.01944444444	-0.01388888889	2.138742533	0.9776766899	-0.03463089356	-0.09497889368	0.2293558997	0.6511449014	0.2891129869	-0.01386818874	-0.0008947744227	-0.009059395425	-0.009283075274	-0.001677710416	-0.005592316335	-0.0164400972	-0.06912316315	-0.0522968507	-0.01822911114	0.01398002472	0.03234060256	0.03611102516	0.01909563635	0.02004595948	0.01711097233	1	1	0	0	0
1	0.5256718502	1	0.5401908798	1	0.6407252649	0	0.5539557547	2	0.8083333333	0.8222222222	0.7805555556	0.803030303	1	-0.01388888889	-0.02777777778	2.148976717	0.9927331149	-0.04348120987	-0.07518708255	0.3525157731	0.7030210409	0.269339316	-0.04984261996	-0.01912358281	-0.02102422136	-0.02068882732	-0.02191858612	-0.02471325085	-0.02426612851	-0.05530798274	-0.0003914659777	0.006403176616	0.01957080367	0.01655190944	0.019570804	0.01565736357	0.003019868802	0.0004473926342	1	1	0	0	0
1	0.5263644141	1	0.5395008458	1	0.6293692033	0	0.5443277579	2	0.7805555556	0.8083333333	0.7583333333	0.803030303	1	-0.02777777778	-0.02222222222	2.111640986	0.9915658944	-0.03342991698	-0.09370410231	0.2374988223	0.7037839048	0.3345627989	-0.01822911631	-0.01565736157	-0.03220092651	-0.03745137386	-0.04002000386	-0.03923830081	-0.03655781919	-0.04135994679	-0.03890326903	-0.00911531264	0.01202301756	0.0237072023	0.0272839926	0.02370720363	0.01364453208	0.01342087705	1	1	0	0	0
1	0.5256718502	1	0.5401908798	1	0.6334056978	0	0.5532692946	2	0.7583333333	0.7805555556	0.7722222222	0.803030303	1	-0.02222222222	0.01388888889	2.231769003	0.9759231506	-0.03988040918	-0.09597634899	0.2682497701	0.6552808319	0.2079771539	-0.02046522937	-0.02203038477	-0.02918389629	-0.03208919541	-0.02884863414	-0.0261663269	-0.02638986576	-0.03800981172	-0.01423162831	0.01806139872	0.04024333259	0.04147159961	0.04336958344	0.02795457498	0.0008947784227	-0.003914640647	1	1	0	0	0
1	0.5249791875	1	0.5401908798	1	0.6204253046	0	0.5353575526	1	0.7722222222	0.7583333333	0.7777777778	0.803030303	1	0.01388888889	0.005555555556	2.398763386	0.9720881965	-0.05932125381	-0.08954504259	0.3012882636	0.6391148203	0.1825894355	-0.02404255703	-0.01274991298	-0.01811730058	-0.01129610743	-0.009842251451	-0.00402648355	-0.01632827323	-0.05452740476	-0.0403549853	-0.008360394823	0.01110040514	0.02465736009	0.02605455382	0.01711098566	0.02113601399	0.02538391276	1	1	0	0	0
1	0.5235935763	1	0.5422600473	1	0.6231911573	0	0.5401908798	2	0.7777777778	0.7722222222	0.8	0.803030303	1	0.005555555556	0.02222222222	2.386698615	0.9982688034	-0.1083446898	0.05656233752	0.4968511581	0.7285590554	0.3112211276	-0.02672517976	-0.0165519161	-0.01610464406	-0.0154337243	-0.01386820407	-0.01666373592	-0.01811731191	-0.06299842253	-0.04426265085	-0.007829164817	0.008695920747	0.01129610643	0.0272839956	0.02091241554	0.01207893044	0.01308539599	1	1	0	0	0
1	0.5256718502	1	0.5401908798	1	0.639645269	0	0.5580701059	2	0.8	0.7777777778	0.8194444444	0.803030303	1	0.02222222222	0.01944444444	2.453389131	0.995175034	-0.05173911879	-0.09190223724	0.3145507452	0.7234548863	0.3242678608	-0.01420366997	-0.009059392092	-0.02862511954	-0.03588761241	-0.0345471046	-0.0338768081	-0.03745136787	-0.04705300331	-0.03521737268	0.008584080097	0.0351056603	0.03499395103	0.03208919075	0.02761928873	0.01140794035	-0.005256784214	1	1	0	0	0
1	0.5263644141	1	0.5401908798	1	0.6358289111	0	0.5539557547	2	0.8194444444	0.8	0.8138888889	0.803030303	1	0.01944444444	-0.005555555556	2.359241354	0.9927820739	-0.1022889812	-0.1275898211	0.2513016428	0.7000389446	0.357013204	-0.009394913185	-0.01163161266	-0.01699917752	-0.01353272106	-0.01129611476	-0.01174344671	-0.01330906469	-0.01822911897	-0.005620277456	0.01188323004	0.0375630562	0.03789811885	0.03745136588	0.02437791001	0.01062510708	0.003467256752	1	1	0	0	0
1	0.5263644141	1	0.5395008458	1	0.6431394771	0	0.5539557547	2	0.7722222222	0.7694444444	0.7944444444	0.8047979798	1	0.002777777778	0.02222222222	2.375995047	0.9764758614	-0.04095555545	-0.1077843029	0.2367681117	0.6588914273	0.2250767749	-0.03355581614	-0.007499179123	-0.01725863331	-0.02534943285	-0.02237520765	-0.01916259257	-0.02356494254	-0.06513989045	-0.002231935255	0.01348011913	0.02891792037	0.02189930625	0.01809164669	0.01940059342	-0.007975313016	-0.008332397063	1	1	0	0	0
1	0.5263644141	1	0.5395008458	1	0.6198702933	0	0.5319010518	1	0.7944444444	0.7722222222	0.8055555556	0.8047979798	1	0.02222222222	0.01111111111	2.439406682	0.9853168882	-0.02939367091	-0.08396102573	0.259610351	0.6838730095	0.2553868802	-0.02570633203	-0.0007142225598	-0.004285311984	-0.006070818919	-0.002380739429	0.004880473209	0.00214265696	-0.02573606447	-0.01508679019	0.007052824228	0.01038560208	0.01511654191	0.01990630402	0.01737764796	0.01166509473	0.01749665219	1	1	0	0	0
1	0.5263644141	1	0.5395008458	1	0.642323814	0	0.5635434368	2	0.8055555556	0.7944444444	0.8472222222	0.8047979798	1	0.01111111111	0.04166666667	2.434877291	0.9942975109	-0.03310992897	-0.09107802581	0.2770358539	0.7209074977	0.3293618756	-0.01297430288	-0.009879752094	-0.01856763989	-0.02737166849	-0.03367472772	-0.03022618216	-0.02784745516	-0.03391253243	-0.006814767242	0.007409916359	0.02772851658	0.02487360546	0.02059049675	0.01362890296	-0.006427897862	-0.01035583808	1	1	0	0	0
1	0.5249791875	1	0.5408807599	1	0.643461815	0	0.5594398153	2	0.8472222222	0.8055555556	0.8416666667	0.8047979798	1	0.04166666667	-0.005555555556	2.45181605	0.9986552045	-0.06922813025	-0.07118256093	0.4291771347	0.7582242592	0.3320123718	-0.01226019251	-0.005237574696	-0.01118900444	-0.01654462816	-0.0264200603	-0.02297009102	-0.01511653251	-0.03415032408	0.004196034513	0.05399024955	0.05517707445	0.05042888273	0.04163886998	0.02856112029	0.01487853784	-0.007142086924	1	1	0	0	0
1	0.5249791875	1	0.5415704832	1	0.6352331447	0	0.5477705142	2	0.8416666667	0.8472222222	0.8305555556	0.8047979798	1	-0.005555555556	-0.01111111111	2.193847718	0.9991737862	-0.1063428097	-0.002202177202	0.4973093968	0.7526928436	0.3697898463	-0.01458100065	0.003571088293	0.001547471071	-0.003213997385	-0.002380735881	-0.01606861366	-0.01464051525	-0.08147835851	-0.02793666921	0.007231370081	0.02427877632	0.01821065002	0.02903686083	0.01464050815	-0.001666512607	-0.001190364661	1	1	0	0	0
1	0.5249791875	1	0.5401908798	1	0.6308898733	0	0.5457053876	2	0.8305555556	0.8416666667	0.7944444444	0.8047979798	1	-0.01111111111	-0.03611111111	2.128054313	0.9892825146	-0.04045048547	-0.08195131341	0.3523999933	0.6904696617	0.2110467008	-0.01832963723	-0.004404334553	-0.01273626421	-0.00749918196	0.003094962402	0.001428449358	-0.005713708629	-0.03025591062	-0.02145311583	0.006160085256	0.008451425379	0.01749664297	0.02380289693	0.02499256196	0.0142834559	0.01166508906	1	1	0	0	0
1	0.5270568766	1	0.5395008458	1	0.6226661085	0	0.5408807599	2	0.7944444444	0.8305555556	0.7972222222	0.8047979798	1	-0.03611111111	0.002777777778	2.114224607	0.9966997974	-0.04006424686	-0.1041650185	0.2705943161	0.7365209253	0.3829699182	-0.01392642589	-0.01368839576	-0.03034511198	-0.03367473623	-0.02879898971	-0.02903686367	-0.03308020855	-0.03486370337	-0.03985626709	-0.009284619893	0.01603885413	0.03831114545	0.04294591567	0.03093973608	0.03001805841	0.02891792143	1	1	0	0	0
1	0.5256718502	1	0.5401908798	1	0.6361414273	0	0.5477705142	2	0.7972222222	0.7944444444	0.7833333333	0.8047979798	1	0.002777777778	-0.01388888889	2.271674709	0.998266959	-0.06585105851	-0.09104852041	0.4021257768	0.7535172135	0.3264403225	-0.01809165449	-0.01095097192	-0.0248736005	-0.02201828857	-0.02035252064	-0.01832965142	-0.01987656863	-0.02986940034	-0.005356621714	0.03468536185	0.05422761708	0.0474600722	0.03581480477	0.02439773843	0.009879742872	0.004999511438	1	1	0	0	0
1	0.5256718502	1	0.5401908798	1	0.63132711	0	0.5470823178	2	0.7833333333	0.7972222222	0.8166666667	0.8047979798	1	-0.01388888889	0.03333333333	2.300514316	0.9844216073	-0.03786540901	-0.09261245863	0.3011156695	0.6766143999	0.2174068066	-0.04187652081	-0.01285529153	-0.009284624504	-0.007499199697	-0.02023353704	-0.03724135313	-0.03985627842	-0.08254249188	-0.04449044559	0.004017475292	0.02002528989	0.0226131659	0.03545814341	0.01478926423	-0.002529535337	-0.00785628147	1	1	0	0	0
1	0.5277492351	1	0.5325926076	1	0.6159606438	0	0.5512087053	2	0.8	0.775	0.8305555556	0.7909090909	1	0.025	0.03055555556	2.49643478	0.998558592	-0.01910792621	-0.007501525481	0.3690174193	0.7315849377	0.4590872802	0.1898853395	0.08136469836	0.04910111933	0.02774428158	-0.02238254619	0.01186916111	-0.0440555963	-0.08035057	-0.01642621179	-0.05430981503	0.009922753588	0.0526527998	0.1062351595	0.09599067771	0.02781543298	-0.02639212808	1	1	0	0	0
0	0.5291336291	1	0.5	2	0.6155233884	0	0.5457053876	2	0.8305555556	0.8	0.7944444444	0.7909090909	1	0.03055555556	-0.03611111111	2.34114171	0.9927700002	-0.07902960678	-0.02155207014	0.3103506847	0.6691914259	0.4141055847	0.1572633802	0.02093512203	-0.000973316981	-0.07121623983	-0.03054315037	-0.02361634635	-0.04862746096	-0.06254289347	0.006931805572	-0.02164698133	0.03139695172	0.06289758323	0.08004394351	0.03990852162	0.03137323576	-0.006575729416	1	1	0	0	0
1	0.5284414867	1	0.5325926076	1	0.6153291813	0	0.5498339973	2	0.7944444444	0.8305555556	0.7972222222	0.7909090909	1	-0.03611111111	0.002777777778	2.114224607	0.9971881364	-0.09756632486	-0.04234953796	0.3412214811	0.7212366026	0.411584835	0.1284060029	-0.0003560866561	-0.006385824139	-0.0279103107	-0.0373721793	-0.01813491991	-0.03893670163	-0.03561782665	-0.00750152633	0.005317571659	0.05804879295	0.07751959011	0.1177917196	0.06549814999	0.02503986046	-0.01177422409	1	1	0	0	0
1	0.5277492351	1	0.5325926076	1	0.6126219556	0	0.5422600473	2	0.7972222222	0.7944444444	0.7722222222	0.7909090909	1	0.002777777778	-0.025	2.247152252	0.9974171804	-0.08450030917	0.0003798458759	0.3985275789	0.7088711823	0.4237744428	0.1031829002	-0.002302704302	-0.1028540246	-0.1022902697	-0.138315726	-0.1051083779	-0.1297365805	-0.1067749763	-0.08136468206	-0.04801166556	0.01220146815	0.004747854053	0.02250118298	0.02038934116	-0.007762644664	0.01094343942	1	1	0	0	0
1	0.5291336291	1	0.5332840383	1	0.6181407756	0	0.548458528	2	0.7722222222	0.7972222222	0.7583333333	0.7909090909	1	-0.025	-0.01388888889	2.147616422	0.9989284465	-0.0381544921	-0.01386294998	0.4302768947	0.7452701611	0.4229170917	0.1600404046	0.02724612344	-0.0233553579	-0.01016013114	-0.0183722621	-0.008830835569	-0.01868075214	-0.002611328534	0.001732978688	0.008284871046	0.04739585912	0.09984662108	0.1276821502	0.07902961194	0.02152835199	-0.002540117275	1	1	0	0	0
1	0.5284414867	1	0.5312093734	1	0.6143690684	0	0.5436386872	2	0.7583333333	0.7722222222	0.7583333333	0.7909090909	1	-0.01388888889	-8.88E-16	2.243260233	0.9975610542	0.002302714489	-0.02157580282	0.3573327724	0.720575294	0.4346193559	0.1519570127	0.02368752652	-0.03217955907	-0.05009571704	-0.03976630739	-0.02836101379	-0.0454534164	-0.04057215025	-0.03547556196	-0.002231502912	0.01692459999	0.03246413442	0.05897147118	0.03343639672	0.0008546227732	-0.002824981532	1	1	0	0	0
1	0.5284414867	1	0.5284414867	0	0.6519684378	0	0.5353575526	1	0.7583333333	0.7583333333	0.7833333333	0.7909090909	1	-8.88E-16	0.025	2.37871386	0.9693100734	-0.05097183204	-0.09982311736	0.1525599275	0.6167139803	0.3340492055	0.0246128237	-0.07513588102	-0.1375705322	-0.1494745951	-0.1380363021	-0.1758198909	-0.1711227885	-0.03303327117	-0.02930980586	-0.0006647043404	0.06202265064	0.1134586499	0.1321631728	0.1336556551	0.1231023831	0.1200150836	1	1	0	0	0
1	0.5298256594	1	0.5291336291	0	0.6074197459	1	0.5415704832	2	0.7833333333	0.7583333333	0.8166666667	0.7909090909	1	0.025	0.03333333333	2.522486305	0.9273736322	-0.06024884756	-0.08115245226	0.1790158002	0.5296367223	0.3150840381	0.115496916	0.0245416483	0.006195914793	-0.003655858097	-0.001495582204	-0.001281927897	-0.001756715695	-0.02193171574	-0.005768614003	-0.00541253988	0.0186095646	0.03234555832	0.04692211661	0.008925791255	-0.01148938288	-0.0109671733	1	1	0	0	0
1	0.5298256594	1	0.5319010518	1	0.6163706731	0	0.548458528	2	0.8166666667	0.7833333333	0.8138888889	0.7909090909	1	0.03333333333	-0.002777777778	2.447056337	0.9391103455	-0.08735158833	-0.1138335789	0.1652173832	0.5483304818	0.3021112044	0.04886428857	-0.06816872608	-0.103417737	-0.1140210387	-0.1164571504	-0.1151455708	-0.1156140384	-0.08864713805	-0.06287394742	-0.01559554693	0.02537201297	0.05265281165	0.05085344342	0.02288082283	-0.003703330974	-0.01424268478	1	1	0	0	0
1	0.5298256594	1	0.5346665134	1	0.6115531235	0	0.5512087053	2	0.8916666667	0.9222222222	0.9	0.9180555556	1	-0.03055555556	0.008333333333	2.050637442	0.9985332811	-0.007150167622	-0.01421294668	0.3878042703	0.7187597822	0.4757906633	0.2161991753	0.06361652276	-0.000780025128	-0.01351970403	-0.01698569706	-0.01967157474	-0.01761387008	-0.03569291843	-0.008926784761	0.03500043375	0.08395858794	0.1334512441	0.1625890414	0.131577979	0.06024934708	0.01315143422	1	1	0	0	0
1	0.5298256594	1	0.5360484561	1	0.6159042469	0	0.5518957673	2	0.9	0.8916666667	0.8638888889	0.9180555556	1	0.008333333333	-0.03611111111	2.147720036	0.9957418279	-0.01269648911	-0.02859335369	0.3302662299	0.6919603982	0.4360006209	0.1699419249	0.03396162566	-0.02673136649	-0.04393512137	-0.04808647781	-0.04895114094	-0.05087474278	-0.04590289562	-0.02053793726	0.0163791859	0.06283959814	0.1087723172	0.1317483132	0.1003501293	0.04711364336	0.003120119433	1	1	0	0	0
1	0.5284414867	1	0.5346665134	1	0.6146859617	0	0.5505214477	2	0.8638888889	0.9	0.8388888889	0.9180555556	1	-0.03611111111	-0.025	2.002068697	0.9929753336	-0.003206780867	-0.01410462215	0.3129385088	0.6762516967	0.4165877177	0.1268907433	0.01536107016	-0.01343306469	-0.02192403174	-0.02105773003	-0.02677466843	-0.02922118149	-0.03826783737	-0.009381762966	0.01003173224	0.05290600563	0.1027733043	0.109371792	0.06997989807	0.02326672738	-0.01332474601	1	1	0	0	0
1	0.5270568766	1	0.5388106603	1	0.6083376761	1	0.5505214477	2	0.8388888889	0.8638888889	0.9194444444	0.9180555556	1	-0.025	0.08055555556	2.278058199	0.9969831521	-0.0004766880169	-0.009013453197	0.3520904634	0.7233367301	0.4090382798	0.03439447517	-0.0190867753	-0.04242122253	-0.04763250126	-0.04856205139	-0.05564967225	-0.05677282226	-0.0335504128	0.009295100668	0.04609748338	0.1216641992	0.1644869608	0.1757224934	0.1326850184	0.06068111246	0.03430789855	1	1	0	0	0
1	0.5263644141	1	0.5332840383	1	0.6062050089	1	0.5512087053	2	0.9194444444	0.8388888889	0.9833333333	0.9180555556	1	0.08055555556	0.06388888889	2.71573961	0.9929179302	-0.04624883518	-0.04962119741	0.3466880985	0.6980537745	0.3109043351	-0.01473285113	-0.06853513473	-0.07747917492	-0.07713456365	-0.06255903514	-0.06527799251	-0.06350862522	-0.03638538044	-0.01882686214	0.02694788501	0.08008467376	0.1390652481	0.1638755423	0.1290007141	0.06605465604	0.01845864503	1	1	0	0	0
1	0.5277492351	1	0.5353575526	1	0.6090971051	1	0.5546420091	2	0.9833333333	0.9194444444	0.9916666667	0.9180555556	1	0.06388888889	0.008333333333	2.370660988	0.9982617533	-0.03257643491	-0.02850674673	0.3760712601	0.7368617241	0.4325899689	0.0857655531	-0.02400301325	-0.05472080341	-0.05539046287	-0.05867321606	-0.0538134572	-0.04542720838	-0.02679632556	-0.006196840634	0.01967157577	0.08361432842	0.1418689192	0.1622725934	0.1088579554	0.0448649844	0.007735154422	1	1	0	0	0
1	0.5291336291	1	0.5395008458	1	0.6147658514	0	0.5560138905	2	0.9916666667	0.9833333333	0.95	0.9180555556	1	0.008333333333	-0.04166666667	1.997508346	0.9994305187	-0.01603259727	-0.02010475435	0.3986842576	0.7596582337	0.4971902686	0.1629687173	0.01066001107	-0.04434601526	-0.05024799749	-0.06363809972	-0.06872922636	-0.06538587114	-0.04594613358	-0.02008310359	0.02157750781	0.07862055472	0.1300233084	0.1372161443	0.1058594749	0.04159930901	0.006500168416	1	1	0	0	0
1	0.5284414867	1	0.5381203259	1	0.6110950874	0	0.5512087053	2	0.95	0.9916666667	0.9194444444	0.9180555556	1	-0.04166666667	-0.03055555556	1.860974731	0.9993824926	-0.01351972365	-0.01949831558	0.4208582975	0.7598048131	0.4727509874	0.1400637822	-0.003575129248	-0.05098279896	-0.06266694952	-0.0711656804	-0.0663998189	-0.05869480496	-0.05074507282	-0.02374315284	0.01403963642	0.06663710501	0.125696718	0.1517906265	0.1169011017	0.05541207031	0.01681242144	1	1	0	0	0
1	0.5298256594	1	0.5360484561	1	0.6066195412	1	0.5374298453	1	0.675	0.6944444444	0.7166666667	0.7134615385	1	-0.01944444444	0.04166666667	2.360148632	0.9998689148	-0.01097053777	0.108013371	0.5409933875	0.7387029796	0.5667907604	0.2395533708	-0.01008903814	-0.1288740389	-0.1536408065	-0.1430070898	-0.1342645495	-0.1349378122	-0.1130448049	-0.06904632649	-0.0006856913763	0.06994803259	0.09101716616	0.07304221666	0.04102018865	0.01694461479	0.00930546515	1	1	0	0	0
1	0.5312093734	2	0.5374298453	1	0.6120869912	0	0.5415704832	2	0.7166666667	0.675	0.7166666667	0.7134615385	1	0.04166666667	2.22E-16	2.601715779	0.999935274	-0.01694461654	0.09492577357	0.5340280779	0.7475186905	0.6069649492	0.2834382096	0.005387492066	-0.131570274	-0.1617598741	-0.1541189834	-0.1454050462	-0.139551087	-0.114591782	-0.05733878455	0.0133211115	0.07128819448	0.08647381988	0.06378008023	0.03485791339	0.0137863149	-0.003844722656	1	1	0	0	0
1	0.530517575	2	0.5401908798	1	0.6106461566	0	0.5415704832	2	0.7166666667	0.7166666667	0.7361111111	0.7134615385	1	2.22E-16	0.01944444444	2.393477665	0.9999822027	0.00822804468	0.1940075281	0.6137869915	0.7599954232	0.6093106153	0.3059997256	0.0452244282	-0.1014981905	-0.14828034	-0.1546687928	-0.1433908778	-0.1391668864	-0.1285850572	-0.09143001016	-0.03994445819	0.03405074427	0.07469835897	0.069631222	0.03329244387	0.01057875706	0.003820227091	1	1	0	0	0
1	0.5312093734	2	0.5395008458	1	0.6149070882	0	0.5443277579	2	0.7361111111	0.7166666667	0.7305555556	0.7134615385	1	0.01944444444	-0.005555555556	2.430249972	0.9999552603	-0.02125307724	0.1325327478	0.5683180006	0.7510841415	0.5972239686	0.3005518269	0.05599621662	-0.1053744741	-0.1553141077	-0.1538320693	-0.1422633838	-0.1332063287	-0.117877246	-0.07771733186	-0.01939269709	0.05216272884	0.09356657567	0.08336186734	0.05265115826	0.02105725561	0.005632366997	1	1	0	0	0
1	0.530517575	2	0.5395008458	1	0.6096760874	1	0.5415704832	2	0.7305555556	0.7361111111	0.7388888889	0.7134615385	1	-0.005555555556	0.008333333333	2.324712333	0.9999226413	0.0008815967688	0.1548839248	0.5790946932	0.7443358496	0.5641754651	0.2512672788	0.01978436732	-0.1135282797	-0.1427192229	-0.1364041448	-0.1273083944	-0.1216427136	-0.09609050729	-0.05462903	0.01674878297	0.08647383349	0.1020071432	0.08229176009	0.0484498615	0.01909894883	0.01146026913	1	1	0	0	0
1	0.5312093734	2	0.5388106603	1	0.6142871585	0	0.5408807599	2	0.7388888889	0.7305555556	0.7083333333	0.7134615385	1	0.008333333333	-0.03055555556	2.299887624	0.999940879	-0.01939268892	0.09774010969	0.5197349139	0.7494142209	0.6168304238	0.3051560529	0.06477998518	-0.0894626233	-0.1478012938	-0.1455968123	-0.136187824	-0.1303186765	-0.1366685101	-0.09045855352	-0.01821765238	0.05577650251	0.07927495221	0.05509292342	0.03025890964	0.01283142155	-5.84E-10	1	1	0	0	0
1	0.5312093734	2	0.5415704832	1	0.6109443244	0	0.5401908798	2	0.7083333333	0.7388888889	0.7111111111	0.7134615385	1	-0.03055555556	0.002777777778	2.185307644	0.9999686696	-0.02164471938	0.1330138895	0.5711628111	0.7561625871	0.6125644736	0.3112065	0.04805893811	-0.1078197387	-0.1558159322	-0.1568671027	-0.1444700516	-0.1314018151	-0.1154617017	-0.08482079231	-0.03427088034	0.02467970397	0.08793198692	0.1025887221	0.07391905437	0.04121578087	0.02122859324	1	1	0	0	0
1	0.5319010518	2	0.5374298453	1	0.614636184	0	0.5422600473	2	0.7111111111	0.7083333333	0.7138888889	0.7134615385	1	0.002777777778	0.002777777778	2.368048433	0.9999439967	-0.0166508336	0.09628461214	0.5270602531	0.7472159944	0.6166483387	0.3040674462	0.03945544338	-0.115147591	-0.1664304442	-0.1671684731	-0.1584909393	-0.1523971942	-0.1298371997	-0.09210990317	-0.02849723028	0.04278029891	0.08248633957	0.07060597362	0.03916204376	0.01146026562	0.00509363884	1	1	0	0	0
1	0.5319010518	2	0.5381203259	1	0.6159491622	0	0.5436386872	2	0.7138888889	0.7111111111	0.6972222222	0.7134615385	1	0.002777777778	-0.01666666667	2.315120897	0.9999376321	-0.0177280223	0.1004559223	0.5340280705	0.7432088602	0.602428989	0.3172098219	0.06748635104	-0.1066577841	-0.1651920216	-0.1683346421	-0.1545970824	-0.1501957948	-0.1279106557	-0.08861233259	-0.02409232528	0.05694822501	0.09531403378	0.08277817859	0.05382327813	0.02318672666	0.009991089273	1	1	0	0	0
1	0.530517575	2	0.5360484561	1	0.6096344731	1	0.5395008458	1	0.6972222222	0.7138888889	0.6972222222	0.7134615385	1	-0.01666666667	8.88E-16	2.255623685	0.9999185028	-0.01616120924	0.1248261244	0.5613810971	0.7416261571	0.5760265479	0.2703919438	0.01324765691	-0.1289703757	-0.1580373041	-0.1507941656	-0.1345771668	-0.1275011155	-0.1027825524	-0.06475558634	-0.008228043221	0.04688613868	0.09909819648	0.0954111105	0.06553591437	0.04004225544	0.02301540782	1	1	0	0	0
1	0.5298256594	1	0.5374298453	1	0.6081369808	1	0.5401908798	2	0.6972222222	0.6972222222	0.7388888889	0.7134615385	1	8.88E-16	0.04166666667	2.466648927	0.9999476764	-0.02020050488	0.1197121383	0.5595671335	0.7532534889	0.6025537839	0.2540870878	-0.004309999411	-0.1292593357	-0.1614736902	-0.1572731428	-0.1486635178	-0.1500043064	-0.1347454744	-0.1015224263	-0.04111797765	0.02595230007	0.07002114446	0.0754775886	0.04705717983	0.02529153729	0.002448876496	1	1	0	0	0
1	0.5312093734	2	0.5388106603	1	0.6190751421	0	0.5463939414	2	0.7472222222	0.7333333333	0.7166666667	0.725462963	1	0.01388888889	-0.03055555556	2.326697471	0.9999656001	0.00498113153	0.130105146	0.540292155	0.7466002221	0.6371992844	0.3464163052	0.07443382739	-0.08397138371	-0.1398143591	-0.1505656055	-0.1372404967	-0.1206582323	-0.130630619	-0.09563683072	-0.04615840668	0.009670455322	0.04494600561	0.05078848221	0.04244805372	0.01574405291	0.006414686021	1	1	0	0	0
1	0.530517575	2	0.5408807599	1	0.6110114801	0	0.5422600473	2	0.7166666667	0.7472222222	0.7416666667	0.725462963	1	-0.03055555556	0.025	2.23687063	0.9999366122	-0.03106762989	0.1237219943	0.5691989052	0.7477165404	0.5800700952	0.2891208104	0.03342212626	-0.1053541562	-0.141814962	-0.1436716176	-0.1364536715	-0.1346647859	-0.1420054371	-0.1014118192	-0.03769322595	0.02885846911	0.07547278256	0.06696318641	0.03536369887	0.01438365772	0.004762454946	1	1	0	0	0
1	0.5319010518	2	0.5401908798	1	0.6144216597	0	0.5422600473	2	0.7416666667	0.7166666667	0.7166666667	0.725462963	1	0.025	-0.025	2.408382971	0.9999515028	-0.01661856395	0.12577913	0.5490250262	0.7464711419	0.60872205	0.3222460298	0.07073575686	-0.09207235291	-0.1460980277	-0.1482850492	-0.1412434852	-0.1285521635	-0.1352134786	-0.1002573636	-0.02953824664	0.04564920822	0.09467369288	0.08348883153	0.04787977037	0.0262119458	0.008261258322	1	1	0	0	0
1	0.5319010518	2	0.5401908798	1	0.6202005892	0	0.5470823178	2	0.7166666667	0.7416666667	0.7027777778	0.725462963	1	-0.025	-0.01388888889	2.171062756	0.9999733408	-0.007872520275	0.1371451371	0.5560470633	0.751421373	0.6303372012	0.355619719	0.1028304689	-0.08648007757	-0.1460029086	-0.1508268227	-0.1396714398	-0.1280742059	-0.1204187771	-0.07421633225	0.003304577544	0.07102588037	0.09852516323	0.06957517075	0.04041048377	0.01448081876	-0.007678141373	1	1	0	0	0
1	0.5312093734	2	0.5353575526	1	0.6145736082	0	0.5401908798	2	0.7027777778	0.7166666667	0.675	0.725462963	1	-0.01388888889	-0.02777777778	2.197961586	0.9998325166	-0.003790520103	0.1043929217	0.5164585729	0.7307507691	0.5722136104	0.250284401	-0.009427503317	-0.133089845	-0.1599557425	-0.1552167592	-0.1518002499	-0.1537936607	-0.1357143786	-0.1014118244	-0.04681304761	0.01185705583	0.06009031483	0.06880134493	0.04710397717	0.02779019153	0.01107960826	1	1	0	0	0
1	0.5312093734	2	0.5367392212	1	0.6080124812	1	0.5381203259	1	0.675	0.7027777778	0.7083333333	0.725462963	1	-0.02777777778	0.03333333333	2.288901775	0.9998423257	-0.001846679721	0.1056424912	0.5386900964	0.7296164336	0.5610623279	0.2620448447	0.003693335623	-0.1244636453	-0.1510405224	-0.1395523001	-0.1305589643	-0.1260660873	-0.1035276224	-0.0649309893	-0.002138249916	0.05573128519	0.0845504231	0.07489291791	0.04370922932	0.02798443563	0.01098243273	1	1	0	0	0
1	0.5312093734	2	0.5374298453	1	0.6097471651	1	0.5388106603	1	0.7083333333	0.675	0.7166666667	0.725462963	1	0.03333333333	0.008333333333	2.576926228	0.9998975123	-0.003596139921	0.1123651803	0.5113804461	0.733322003	0.6043600696	0.3027773272	0.04657059294	-0.1022774905	-0.1458840078	-0.1432432536	-0.1344739225	-0.131991746	-0.1472392587	-0.109389217	-0.05447159657	0.00806689221	0.0578626454	0.06018716022	0.03944010824	0.01516103325	0.009233126146	1	1	0	0	0
1	0.5312093734	2	0.5401908798	1	0.6111758907	0	0.5422600473	2	0.7166666667	0.7083333333	0.75	0.725462963	1	0.008333333333	0.03333333333	2.481735642	0.9999424372	-0.01448082021	0.1366682876	0.5482097446	0.7364511998	0.610249259	0.3186484977	0.05689390664	-0.1136605333	-0.1621095556	-0.1650419348	-0.1477384274	-0.1384085088	-0.1264486603	-0.09390305555	-0.03245123722	0.04380623565	0.08850551517	0.08223400029	0.04826765259	0.02999950398	0.01766308981	1	1	0	0	0
1	0.5312093734	2	0.5395008458	1	0.6134127462	0	0.5450166589	2	0.75	0.7166666667	0.7611111111	0.725462963	1	0.03333333333	0.01111111111	2.550109553	0.9998995011	-0.01100672308	0.1480949281	0.5711012733	0.7291615787	0.5666309211	0.2738178787	0.02827577807	-0.1162021396	-0.155382745	-0.1478097316	-0.1297229263	-0.12446364	-0.1173525523	-0.09477001931	-0.04196295303	0.03021798816	0.08001325726	0.0906989132	0.06144600296	0.03237842944	0.01656998452	1	1	0	0	0
1	0.5312093734	2	0.5408807599	1	0.6152547147	0	0.5450166589	2	0.7611111111	0.75	0.7361111111	0.725462963	1	0.01111111111	-0.025	2.316807842	0.9999706251	-0.01156551202	0.1837239717	0.5935785482	0.7443548972	0.606315182	0.3291315369	0.08389901764	-0.08877069301	-0.1517290258	-0.1526784471	-0.1389804485	-0.1362867485	-0.1277873892	-0.09765883464	-0.04894640011	0.0193391005	0.07924063586	0.0928432503	0.06647937279	0.0372564691	0.01720156075	1	1	0	0	0
1	0.5194346481	1	0.5270568766	0	0.5916767986	1	0.5388106603	1	0.1472222222	0.8694444444	1.022222222	0.5462418301	1	-0.7222222222	0.875	1.493779738	0.9458116383	0.1774440568	0.328976853	0.4210386804	0.4577441012	0.2966829424	-0.03645014227	-0.04215368056	-0.009564628003	-0.02603196689	-0.0365827887	-0.07339813902	-0.09496372302	-0.6709602493	-0.2785881843	-0.07769103332	-0.01992431055	-0.02789048365	-0.05070376592	0.003453978704	-0.05421448971	-0.029416964	1	1	0	0	0
0	0.5649094079	2	0.5	2	0.6392832333	0	0.5518957673	2	1.022222222	0.1472222222	0.8416666667	0.5462418301	2	0.875	-0.1805555556	80.98830778	0.9999681021	-0.1027907475	-0.04281672044	0.07412481382	0.2735565911	0.1216135915	-0.009298982387	-0.4874525085	-0.7470842444	-0.624763084	-0.2785881843	-0.08587236516	-0.05123376673	-0.029416964	0.0167370503	0.09562192066	0.1422372002	0.1889986869	0.2195484691	0.1907914747	0.1673901826	0.1277602821	1	1	0	0	0
1	0.5662743942	2	0.5173541374	0	0.7968543568	0	0.5463939414	2	0.8416666667	1.022222222	0.1444444444	0.5462418301	1	-0.1805555556	-0.6972222222	0.7908186605	0.9999716963	-0.04460669632	-0.009298961802	0.07009409947	0.2427476888	0.003188288235	-0.02145138029	-0.3442892888	-0.7292859134	-0.6833313952	-0.4261076996	-0.1513360016	-0.005845158958	-0.06341528769	0.07161415479	0.02762498428	0.1058786547	0.09667486914	0.2856798763	0.1766719747	0.1722927145	0.1184712404	1	1	0	0	0
0	0.5180477114	1	0.5	2	0.5963169731	1	0.5367392212	1	0.1444444444	0.8416666667	0.8305555556	0.5462418301	1	-0.6972222222	0.6861111111	1.196730605	0.8952606435	0.2007562361	0.2875698223	0.3841468183	0.4334724919	0.2697422723	-0.02204890693	-0.01620582113	-0.0657965254	-0.1208936847	-0.05964349457	-0.02895238185	-0.04328081658	-0.7105084403	-0.32779165	-0.08316844539	-0.1089645146	-0.03187229966	0.1003584612	0.006775059061	-0.05765766478	0.01487767521	1	1	0	0	0
0	0.5649094079	2	0.5	2	0.7724769773	0	0.5436386872	2	0.8305555556	0.1444444444	0.1527777778	0.5462418301	3	0.6861111111	-0.6777777778	34.32260119	0.9999905814	-0.04261780877	-0.04964364651	0.01195559358	0.1540607199	0.0116899304	-0.1900873393	-0.6064086327	-0.761594156	-0.6165965132	-0.2546496273	-0.08316844539	-0.100292702	-0.07009409769	0.09562192262	0.1580138708	0.1385908544	0.2330976867	0.2667834245	0.274908023	0.1398935572	0.239682346	1	1	0	0	0
1	0.5166604966	1	0.5457053876	1	0.7211845255	0	0.5751214269	2	0.1527777778	0.8305555556	0.2861111111	0.5462418301	1	-0.6777777778	0.1333333333	0.3352291591	0.8517547444	0.1789875846	0.2211284388	0.3550748004	0.4382073674	0.3753930749	0.0652674356	-0.1079142405	-0.04778821384	-0.01594019756	-0.06023915334	-0.09799074637	-0.06870592182	-0.2937118096	-0.0663255782	-0.03558773246	0.01567457807	0.0918690907	0.1771867163	0.3764197395	0.2286330032	0.1510763794	1	1	0	0	0
0	0.5662743942	2	0.5	2	0.6433745075	0	0.5346665134	1	0.2861111111	0.1527777778	0.7833333333	0.5462418301	2	0.1333333333	0.4972222222	29.99325662	0.9995767536	-0.06870592182	-0.1328532972	-0.01162350766	0.1250151032	0.01089298155	-0.1593736121	-0.3144474463	-0.6453682684	-0.6030802706	-0.2937118096	-0.1208282241	-0.1014103941	0.1074546677	0.02789046367	0.3980993082	0.2170181435	0.2670301798	0.2369256964	0.08982695885	0.1681648282	0.09792495952	1	1	0	0	0
0	0.5457053876	2	0.5	2	0.6101342642	1	0.5256718502	0	0.7833333333	0.2861111111	0.9361111111	0.5462418301	2	0.4972222222	0.1527777778	18.40741613	0.9348354833	0.1567831002	0.04142429585	0.02789046367	0.4003327869	0.2699886143	0.2109335074	0.2798130639	0.2220758486	0.08982695885	0.1401540346	0.1450994922	0.06116565183	-0.0758421266	-0.1526337797	-0.1482192168	-0.02045545619	0.04301562298	-0.01115861692	-0.05308853249	-0.05255863161	-0.03558775539	1	1	0	0	0
0	0.5669565118	2	0.5	2	0.7950345543	0	0.5608086203	2	0.9361111111	0.7833333333	0.15	0.5462418301	2	0.1527777778	-0.7861111111	1.631532157	0.9995635584	-0.04911353958	-0.1287402335	-0.0138151153	0.1560055372	0.1252112453	0.07293568529	-0.2954103088	-0.6375501349	-0.6594069229	-0.2910390573	-0.1116547314	-0.0956219238	-0.03319936671	0.06698687248	0.02231445615	0.1956511402	0.2324065957	0.2795681465	0.2812817369	0.1722927072	0.1119170812	1	1	0	0	0
0	0.5152730249	1	0.5	2	0.5846199947	1	0.5298256594	0	0.15	0.9361111111	0.8888888889	0.5462418301	1	-0.7861111111	0.7388888889	1.056270049	0.7693384883	0.1980136127	0.3208972054	0.3289176391	0.4056737664	0.2084569539	-0.06420908784	-0.06162884587	-0.1172267279	-0.06969752177	-0.07108550076	-0.1161129296	-0.0620920812	-0.6479961472	-0.3654213408	-0.1474395886	-0.005579496794	0.05997442892	0.01042804611	-0.02277919777	-0.02005709446	0.01852991817	1	1	0	0	0
0	0.5649094079	2	0.5	2	0.7820246741	0	0.548458528	2	0.8888888889	0.15	0.1583333333	0.5462418301	3	0.7388888889	-0.7305555556	36.35197607	0.9997250352	-0.0724732057	-0.04513704873	0.1229876112	0.3405366255	0.2699270215	0.0694330848	-0.489677496	-0.683189735	-0.4937066456	-0.2139779237	-0.0636799243	0.05679698735	-0.02098663698	0.03160686028	0.2111873523	0.2005012298	0.1928387997	0.2565741942	0.2050233757	0.08039734487	0.1100801638	1	1	0	0	0
0	0.5166604966	1	0.5	2	0.5850129621	1	0.5325926076	1	0.1583333333	0.8888888889	1.038888889	0.5462418301	1	-0.7305555556	0.8805555556	1.463033434	0.8839707616	0.1653234753	0.3094108272	0.4171509854	0.4463287333	0.2977729331	0.01753389706	0.02490350592	-0.01029522376	-0.03505703397	-0.03081057426	-0.03081057189	-0.0731338872	-0.7024575106	-0.463291706	-0.1701005151	-0.03319935049	0.02072104844	0.01295178755	0.006907894199	-0.04175584237	-0.003453989196	1	1	0	0	0
0	0.5655920254	2	0.5	2	0.7879647701	0	0.5131913825	0	1.038888889	0.1583333333	0.2888888889	0.5462418301	2	0.8805555556	-0.75	46.4534058	0.9999366399	-0.0784172118	-0.0450707371	0.1132943046	0.3456937194	0.2297029107	0.03664915156	-0.4237127492	-0.7166372999	-0.6352579239	-0.3305160663	-0.1014104121	0.001527732998	-0.1160473878	-0.1411957845	-0.1536716269	-0.1542552609	-0.1426927262	-0.1322659999	-0.1327880526	-0.1552277476	-0.1686811419	1	1	0	0	0
1	0.5649094079	2	0.5180477114	0	0.7744509924	0	0.5312093734	1	0.2888888889	1.038888889	0.15	0.5462418301	1	-0.75	-0.1388888889	0.1681944205	0.999848434	-0.04732430428	0.023376681	0.1186677149	0.2807311477	0.09542447708	-0.0543469314	-0.4649073144	-0.7095862688	-0.5800715821	-0.322207399	-0.1333100375	-0.03930222912	0.08508109061	0.03711346999	0.1900233065	0.09272523547	0.3345923991	0.3118114173	0.1050247639	0.1516604981	0.1766076244	1	1	0	0	0
0	0.5284414867	1	0.5	2	0.6240593132	0	0.5208212854	0	0.15	0.2888888889	0.5972222222	0.5462418301	1	-0.1388888889	0.4472222222	4.763253648	0.8412502546	0.1058129842	0.1866918501	0.117161223	0.4027841427	0.2033683995	0.09061755736	0.1875251172	0.1525689092	0.09219839617	0.1046963027	-0.05812106966	0.01235407287	-0.1691328447	-0.1293281077	-0.02669575036	-0.0003985377051	-0.03100965283	-0.04407637883	-0.02848780757	-0.07267139543	-0.08395995562	1	1	0	0	0
0	0.5222076019	1	0.5	2	0.6155095607	0	0.5730838567	2	1.072222222	1.027777778	1.116666667	1.059567901	1	0.04444444444	0.04444444444	2.104500596	0.9999930449	0.1480045847	0.526055445	0.6708277648	0.7354521084	0.5082767903	-0.213148135	-0.3954456027	-0.240554232	-0.1447730219	-0.144611363	-0.1549013349	-0.161059383	-0.09040117428	-0.02451480572	0.04339821783	0.09825618249	0.1184893641	0.1027918413	0.05525749992	-0.00462321623	-0.06529288759	1	1	0	0	0
0	0.5235935763	1	0.5	2	0.6175149517	0	0.5751214269	2	1.116666667	1.072222222	1.113888889	1.059567901	1	0.04444444444	-0.002777777778	1.929690125	0.9999508906	0.135546372	0.4780756047	0.5974639574	0.6590150647	0.5305785129	-0.04207970399	-0.4300948533	-0.3330440369	-0.1841266279	-0.150103395	-0.1536521508	-0.1603757621	-0.1029143621	-0.01192906868	0.06985394127	0.1311675431	0.1414979442	0.1176345924	0.07396047119	0.01448791241	-0.05756176593	1	1	0	0	0
0	0.5249791875	1	0.5	2	0.6079417078	1	0.5614926774	2	1.113888889	1.116666667	1.091666667	1.059567901	1	-0.002777777778	-0.02222222222	1.700377664	0.9999866057	0.08187891391	0.4352282305	0.6337666092	0.7018750703	0.5826938853	0.00499471596	-0.3985751307	-0.2872419137	-0.1381387603	-0.1083840002	-0.1062622119	-0.1237768725	-0.08282188562	-0.03597974942	0.04356302588	0.1094037356	0.09207954365	0.1571164389	0.1627476642	0.08585480229	0.05805545303	1	1	0	0	0
0	0.521514485	1	0.5	2	0.6207470764	0	0.5744425168	2	1.091666667	1.113888889	1.052777778	1.059567901	1	-0.02222222222	-0.03888888889	1.657078775	0.9999976034	0.1799758965	0.5221932726	0.6759265901	0.7558242508	0.5811924324	-0.1828501626	-0.4409322377	-0.2685015895	-0.1101785779	-0.1256461692	-0.1193032653	-0.1274333655	-0.08499425993	-0.07958235024	-0.004210423728	0.008544540628	0.03037198394	0.0335059773	0.04916487247	0.02010015629	-0.0411319327	1	1	0	0	0
0	0.521514485	1	0.5	2	0.6247647281	0	0.5751214269	2	1.052777778	1.091666667	0.9833333333	1.059567901	1	-0.03888888889	-0.06944444444	1.644643855	0.9999924312	0.2280703972	0.5596985456	0.6658945299	0.7231841512	0.5325922751	-0.1764587274	-0.4314396184	-0.3015679966	-0.1838075641	-0.1653987159	-0.1698920258	-0.1914540723	-0.133844126	-0.07502777864	-0.006109214342	0.05015313783	0.1085471705	0.09334817683	0.06426524384	0.02760862039	-0.03861790917	1	1	0	0	0
0	0.521514485	1	0.5	2	0.6063349152	1	0.5614926774	2	0.9833333333	1.052777778	1.019444444	1.059567901	1	-0.06944444444	0.03611111111	1.769632241	0.9930238847	0.09113808065	0.3397432158	0.4274333092	0.4807461034	0.1705333533	-0.38283583	-0.4102452949	-0.2088885326	-0.1025059317	-0.08138686615	-0.06373081945	-0.0715379103	-0.02814483855	0.008916025431	0.03272255269	0.09224324383	0.1157208895	0.1422260122	0.1062214055	0.0410907245	0.0486295363	1	1	0	0	0
0	0.5235935763	1	0.5	2	0.5933953615	1	0.5436386872	2	1.019444444	0.9833333333	1.058333333	1.059567901	1	0.03611111111	0.03888888889	2.188355972	0.999992119	0.06673136758	0.4315739817	0.6567674604	0.7308704887	0.5367193256	-0.2421092282	-0.4057033959	-0.2203865428	-0.1240207539	-0.1223946573	-0.1251586193	-0.1502647895	-0.1152321401	-0.07859785944	-0.06068800149	-0.008957298624	0.02381347165	0.03127927208	0.05838457582	0.02542237871	0.05603937554	1	1	0	0	0
0	0.5249791875	1	0.5	2	0.6329020508	0	0.548458528	2	0.725	0.7138888889	0.7166666667	0.7085470085	1	0.01111111111	-0.008333333333	2.38009403	0.9964190659	-0.01326615302	0.06610837527	0.4106050428	0.6702423141	0.2650768664	-0.3311877643	-0.259604126	-0.1455432686	-0.1217765815	-0.1239898135	-0.1374121782	-0.1343581704	-0.2513638244	-0.2131024437	-0.08192387079	0.04305842178	0.09238811222	0.09324495319	0.05577545345	0.02436831032	0.004148613284	1	1	0	0	0
0	0.5263644141	1	0.5	2	0.6290348854	0	0.5436386872	2	0.7166666667	0.725	0.7083333333	0.7085470085	1	-0.008333333333	-0.008333333333	2.273458304	0.9980968712	-0.006352489905	0.06705487356	0.4376778283	0.6791410856	0.3456897294	-0.2748526432	-0.3130626976	-0.182042665	-0.1192213771	-0.1154708489	-0.1258616192	-0.1440201806	-0.2592816965	-0.2170591613	-0.164269574	-0.03045693112	0.08677238443	0.1270948186	0.08981670578	0.05232837122	0.03818321904	1	1	0	0	0
0	0.5256718502	1	0.5	2	0.6277864404	0	0.5443277579	2	0.7083333333	0.7166666667	0.7138888889	0.7085470085	1	-0.008333333333	0.005555555556	2.312723649	0.9962462344	-0.02458418821	0.0546121797	0.3785018026	0.6710269955	0.2759708648	-0.3102534769	-0.2869530617	-0.1860507582	-0.167463537	-0.1802036071	-0.184882358	-0.1927170807	-0.3113465592	-0.2901223778	-0.18438146	-0.04538743254	0.04042691021	0.06451623528	0.02682990303	0.02782311205	-0.004969637386	1	1	0	0	0
0	0.5256718502	1	0.5	2	0.630330368	0	0.5463939414	2	0.7138888889	0.7083333333	0.7111111111	0.7085470085	1	0.005555555556	-0.002777777778	2.368048433	0.9986604275	-0.005617838912	0.07410675266	0.4578876941	0.7118235788	0.3495270112	-0.2236377362	-0.2658802135	-0.166119117	-0.1110341842	-0.1251810828	-0.1227982577	-0.1455432948	-0.2341210446	-0.2131024555	-0.137072993	-0.01784576548	0.07612636615	0.1358855335	0.1089850016	0.07212948672	0.04560308991	1	1	0	0	0
0	0.5263644141	1	0.5	2	0.6482824696	0	0.5608086203	2	0.7111111111	0.7138888889	0.7138888889	0.7085470085	1	-0.002777777778	0.002777777778	2.335838074	0.9970576983	-0.01374141355	0.03006832924	0.4034299949	0.6996565348	0.3570156238	-0.2046713407	-0.1842144388	-0.1506153077	-0.1502774074	-0.1445279118	-0.1666233289	-0.1822097799	-0.3110343081	-0.2315051862	-0.02989562913	0.1142767899	0.09345910053	0.07161358148	0.0369748746	-0.01261801564	-0.03645705141	1	1	0	0	0
0	0.5256718502	1	0.5	2	0.6369637455	0	0.5505214477	2	0.7138888889	0.7111111111	0.6972222222	0.7085470085	1	0.002777777778	-0.01666666667	2.315120897	0.998105967	-0.06460231306	0.03309033915	0.3872422359	0.7068424035	0.4355442461	-0.1802036071	-0.1965422146	-0.158208441	-0.1292625097	-0.1346976187	-0.1538235258	-0.153485969	-0.2872703049	-0.2417853225	-0.1265420228	0.02376361912	0.08552849538	0.06920557813	0.05629240098	0.01158103251	-0.001728571821	1	1	0	0	0
0	0.5256718502	1	0.5	2	0.6298473455	0	0.5457053876	2	0.6972222222	0.7138888889	0.7166666667	0.7085470085	1	-0.01666666667	0.01944444444	2.306762895	0.9961724136	-0.0140438716	0.05745542782	0.41776521	0.6823872856	0.2780456081	-0.2655588968	-0.2206798409	-0.1492635326	-0.1346976349	-0.1501084764	-0.1445279501	-0.1595564189	-0.2570230003	-0.2132674305	-0.1436815912	-0.0009939267808	0.06111574112	0.1016772934	0.06490346719	0.03904617999	0.03006832616	1	1	0	0	0
0	0.5256718502	1	0.5	2	0.6411455683	0	0.5539557547	2	0.7166666667	0.6972222222	0.6777777778	0.7085470085	1	0.01944444444	-0.03888888889	2.351269708	0.9951188931	-0.0269162452	0.04693983234	0.3952938835	0.6711932794	0.2578300118	-0.2864770836	-0.2383644954	-0.1341884203	-0.09906773623	-0.1127411074	-0.1117170212	-0.1416494919	-0.2339575841	-0.1768565914	-0.06266547153	0.07337609087	0.1301123189	0.09170252982	0.05629240098	0.01883940651	0.009161292263	1	1	0	0	0
0	0.5256718502	1	0.5	2	0.6246365722	0	0.5436386872	2	0.6777777778	0.7166666667	0.7055555556	0.7085470085	1	-0.03888888889	0.02777777778	2.212232875	0.9938953814	-0.01953053692	0.05698158656	0.3947468153	0.6451666069	0.2719737599	-0.2890138948	-0.2594429502	-0.154498556	-0.1489255206	-0.1526419433	-0.1671274777	-0.1582084611	-0.2490954004	-0.2066579309	-0.1590509974	0.01188348104	0.1072766313	0.149094541	0.1117170802	0.07075367624	0.07350502072	1	1	0	0	0
0	0.5249791875	1	0.5	2	0.6269052747	0	0.5457053876	2	0.7055555556	0.6777777778	0.6972222222	0.7085470085	1	0.02777777778	-0.008333333333	2.493235393	0.999260285	-0.04197998727	0.08900221119	0.4709364484	0.7224642035	0.3752019238	-0.247797846	-0.2850484546	-0.2122772763	-0.1103512117	-0.12773245	-0.1216062807	-0.1216062929	-0.2504729593	-0.1968745957	-0.1396162583	-0.04236818464	0.1362672494	0.2471893376	0.2434122141	0.1560167722	0.1173465731	1	1	0	0	0
0	0.5263644141	1	0.5	2	0.6300881845	0	0.5457053876	2	0.6972222222	0.7055555556	0.7138888889	0.7085470085	1	-0.008333333333	0.01666666667	2.347066477	0.9992746534	-0.09452999003	0.01581526184	0.4177652432	0.7293734196	0.4192266836	-0.2353460735	-0.2934434056	-0.1903858669	-0.1392772622	-0.1561854166	-0.1642695659	-0.1842145105	-0.3080647452	-0.2860010529	-0.1870935713	-0.01451914246	0.02609572115	0.09718453553	0.07333302011	0.04853509934	0.04560301588	1	1	0	0	0
1	0.5256718502	1	0.5388106603	1	0.6341455482	0	0.5491463565	2	0.7194444444	0.6861111111	0.7027777778	0.7096153846	1	0.03333333333	-0.01666666667	2.496335515	0.998657386	-0.02182417466	0.08825751715	0.4767439201	0.7085126567	0.3438169069	-0.2461746719	-0.2313736624	-0.1635256622	-0.1395647419	-0.138217809	-0.1612332946	-0.1600864519	-0.2795942444	-0.2459903808	-0.1368703784	0.008927028438	0.06236073087	0.09914832115	0.06074817735	0.01039840134	0.01353719927	1	1	0	0	0
1	0.5256718502	1	0.5388106603	1	0.6303712279	0	0.548458528	2	0.7027777778	0.7194444444	0.7194444444	0.7096153846	1	-0.01666666667	0.01666666667	2.297242039	0.9993125784	-0.0115754817	0.08991202446	0.488706945	0.7263370818	0.3433410049	-0.2810405518	-0.2832075993	-0.164480324	-0.1407189054	-0.1412958187	-0.1482111045	-0.1621886934	-0.2814019118	-0.215716596	-0.1012849082	0.0195197653	0.09142007385	0.09214966032	0.0621163866	0.03118620517	-0.008632774273	1	1	0	0	0
1	0.5263644141	1	0.5381203259	1	0.6321723405	0	0.548458528	2	0.7194444444	0.7027777778	0.725	0.7096153846	1	0.01666666667	0.005555555556	2.454338604	0.9988550025	-0.01692094162	0.04862008858	0.4310823132	0.7079748018	0.3334381203	-0.3061394246	-0.3231098065	-0.1944792372	-0.1652438222	-0.1681051169	-0.1593217082	-0.1692488355	-0.3000814475	-0.2354550114	-0.1026440848	0.03696751649	0.120953028	0.0973024008	0.06113914277	0.02961808613	-0.002354425647	1	1	0	0	0
1	0.5249791875	1	0.5415704832	1	0.6301317742	0	0.5477705142	2	0.725	0.7194444444	0.7222222222	0.7096153846	1	0.005555555556	-0.002777777778	2.362372866	0.9995134262	-0.02452049439	0.1145196975	0.5204351037	0.7310986824	0.3082716415	-0.3141192938	-0.2824855687	-0.1781920139	-0.1355224756	-0.1507047657	-0.1600864975	-0.17115401	-0.2966854577	-0.2365666297	-0.1150521255	0.07119927924	0.1638121085	0.1494581728	0.1076889264	0.05644656352	0.03040218539	1	1	0	0	0
1	0.5263644141	1	0.5401908798	1	0.6336165019	0	0.5450166589	2	0.7222222222	0.725	0.6916666667	0.7096153846	1	-0.002777777778	-0.03055555556	2.245593649	0.9996154582	-0.02937299224	0.06480337384	0.4574948781	0.7326475305	0.4755680832	-0.185401326	-0.299188459	-0.2470960535	-0.159321715	-0.1387952026	-0.1476353743	-0.1409112274	-0.2734334182	-0.2601302456	-0.154537438	-0.03050020307	0.08455750401	0.144659175	0.1049731204	0.06016174908	0.03275428519	1	1	0	0	0
1	0.5256718502	1	0.5374298453	1	0.6285543383	0	0.5457053876	2	0.6916666667	0.7222222222	0.7138888889	0.7096153846	1	-0.03055555556	0.02222222222	2.239130648	0.9995951734	-0.01544979226	0.101916009	0.4918368429	0.7454882768	0.373602192	-0.2772413331	-0.2776035582	-0.153771252	-0.1478272886	-0.1518550484	-0.1409112251	-0.1644803195	-0.2683429233	-0.2297016964	-0.1389875958	0.000294301987	0.04054284207	0.09214966032	0.0617255452	0.03353823367	0.02510881597	1	1	0	0	0
1	0.5249791875	1	0.5381203259	1	0.6346907879	0	0.5512087053	2	0.7138888889	0.6916666667	0.7222222222	0.7096153846	1	0.02222222222	0.008333333333	2.500494144	0.9993437253	-0.03667360766	0.08747875476	0.4509545908	0.7414517538	0.4086604878	-0.2173995966	-0.2352696017	-0.1614243799	-0.1158264523	-0.1372553971	-0.1274243661	-0.143986703	-0.271980446	-0.2162777087	-0.08494705999	0.0210397209	0.09234420097	0.03985726081	0.0380451345	0.01020223525	-0.01863715093	1	1	0	0	0
1	0.5256718502	1	0.5401908798	1	0.6326300591	0	0.5443277579	2	0.7222222222	0.7138888889	0.7111111111	0.7096153846	1	0.008333333333	-0.01111111111	2.357975255	0.9992940748	0.002501584255	0.1097731561	0.5120161171	0.7338495055	0.3985597789	-0.1677237448	-0.1618065666	-0.1224027034	-0.1268452816	-0.1224026919	-0.1351372395	-0.1368704014	-0.2832075713	-0.2668856492	-0.1459075593	-0.008485600436	0.03750634837	0.07339505069	0.03319521173	0.0176564413	-0.004120289991	1	1	0	0	0
1	0.5263644141	1	0.5374298453	1	0.6325874948	0	0.5463939414	2	0.7111111111	0.7222222222	0.6944444444	0.7096153846	1	-0.01111111111	-0.01666666667	2.239006086	0.9985116896	-0.03868180352	0.0605038177	0.3988485423	0.7071174818	0.4498597312	-0.1579828804	-0.2352696857	-0.1671516619	-0.12375539	-0.1472514984	-0.1564520195	-0.1682957557	-0.31217273	-0.2889722312	-0.219081379	-0.04372550759	0.03735936823	0.0920037508	0.07363893098	0.03863281141	0.02099066252	1	1	0	0	0
1	0.5270568766	1	0.5381203259	1	0.6300881845	0	0.5457053876	2	0.6944444444	0.7111111111	0.7138888889	0.7096153846	1	-0.01666666667	0.01944444444	2.307829877	0.9983392102	-0.01103598874	0.05737547322	0.4075975546	0.6912500852	0.3938457855	-0.254634115	-0.3054279764	-0.1705825648	-0.1545373855	-0.1476353331	-0.1702015648	-0.1886201005	-0.3144729334	-0.2730703265	-0.1971207467	-0.02662832973	0.08212199145	0.1264592156	0.1061372003	0.05253411934	0.04803287093	1	1	0	0	0
1	0.5263644141	1	0.5360484561	1	0.6295208597	0	0.5470823178	2	0.7138888889	0.6944444444	0.7027777778	0.7096153846	1	0.01944444444	-0.01111111111	2.428457996	0.9975190517	-0.03001013395	0.04749455394	0.4032117492	0.6913269276	0.2923850927	-0.3082716375	-0.276697866	-0.1539627805	-0.1355224503	-0.1501294505	-0.1428337154	-0.1623797226	-0.2696169265	-0.2531656348	-0.1349446027	0.01549883718	0.08669993998	0.1045850335	0.05766884164	0.01922560824	-0.001765820663	1	1	0	0	0
1	0.5256718502	1	0.533975341	1	0.6104909332	1	0.5683199835	2	1.063888889	1.144444444	1.002777778	1.069444444	1	-0.08055555556	-0.06111111111	1.465696146	0.9974121697	0.0005072213619	-0.0006821310202	0.4202255038	0.7417066626	0.2509184815	-0.1161695462	-0.07080516439	-0.01836292428	-0.01671932784	-0.01309960928	-0.007066030361	-0.002168813751	0.02636951068	0.04921336945	0.1001285983	0.177753648	0.2985274391	0.4372409512	0.4664116681	0.2049811414	0.004390080839	1	1	0	0	0
1	0.5263644141	1	0.5291336291	0	0.6081963806	1	0.5683199835	2	1.002777778	1.063888889	1.047222222	1.069444444	1	-0.06111111111	0.04444444444	1.775087588	0.9870576853	0.0005771856465	-0.02619472139	0.2449597621	0.6866589265	0.2780656031	-0.1172564345	-0.06789830736	-0.01904481555	-0.01722640676	-0.01546034113	-0.007415822258	-0.001679083263	0.02553053285	0.04837582388	0.09500071156	0.1703588723	0.2806456854	0.3979160215	0.4303686983	0.1847229851	-0.006768707553	1	1	0	0	0
1	0.5256718502	1	0.5312093734	1	0.6070705227	1	0.5676383757	2	1.047222222	1.002777778	1.083333333	1.069444444	1	0.04444444444	0.03611111111	2.159603246	0.9943047045	-0.02574027442	-0.03231112607	0.3906485486	0.714619416	0.2033720609	-0.1236856604	-0.06183724962	-0.01601989272	-0.01504066296	-0.01215527295	-0.009532012821	-0.005299558231	0.01539039515	0.03657373837	0.08021348625	0.1553758535	0.2761279099	0.4007974096	0.4292850058	0.1546247622	-0.01124589784	1	1	0	0	0
1	0.5263644141	1	0.5298256594	0	0.5962163681	1	0.5614926774	2	1.083333333	1.047222222	1.158333333	1.069444444	1	0.03611111111	0.075	2.066006618	0.9958827767	-0.0009619678256	-0.01923712777	0.3290198909	0.7356032431	0.2888745837	-0.103002055	-0.05821233324	-0.01969171991	-0.01280233447	-0.005876742999	0.0007695746795	0.01126337481	0.03398836234	0.0738847616	0.136890111	0.2478511712	0.3812412279	0.4856187568	0.4241923223	0.1497041431	5.25E-05	1	1	0	0	0
1	0.5256718502	1	0.5332840383	1	0.6164108503	0	0.5737633259	2	1.158333333	1.083333333	1.002777778	1.069444444	1	0.075	-0.1555555556	1.804301918	0.9987136083	-0.005719312967	0.003655502531	0.4443573395	0.761594156	0.2891150353	-0.1123891614	-0.07454575111	-0.02324064629	-0.01873009719	-0.0162996705	-0.01154319648	-0.004232668822	0.01937701506	0.04663072654	0.08604965219	0.1609691838	0.2913734333	0.4346910513	0.4705072811	0.1981349716	-0.003288194881	1	1	0	0	0
1	0.5256718502	1	0.5353575526	1	0.6111411598	0	0.5717240928	2	1.002777778	1.158333333	1.052777778	1.069444444	1	-0.1555555556	0.05	1.404333942	0.9964652497	5.25E-05	-0.01044143091	0.3884230747	0.73292716	0.2544388331	-0.1172391787	-0.09220941969	-0.03267804374	-0.0194819156	-0.01614229995	-0.008797479791	0.0008395406075	0.02650933356	0.05012062754	0.10165209	0.1833035343	0.32110493	0.4600927171	0.4497174383	0.1345552341	-0.005054703228	1	1	0	0	0
0	0.5263644141	1	0.5	2	0.6093256055	1	0.5669565118	2	0.9	0.9583333333	1.025	1.018518519	1	-0.05833333333	0.125	2.091527543	0.971727972	-0.03725580953	-0.06957802282	0.2220885562	0.6473171941	0.158734828	-0.154834455	-0.1040861907	-0.03668535441	-0.02377315889	-0.01966934995	-0.009924872373	0.0005355358532	0.01792057552	0.04153342723	0.07682222304	0.1450627208	0.254546971	0.386169558	0.4006537351	0.1091688582	-0.009764233215	1	1	0	0	0
0	0.5256718502	1	0.5	2	0.6039274245	1	0.5642265442	2	1.025	0.9	1.041666667	1.018518519	1	0.125	0.01666666667	2.6467195	0.9959212001	-0.0004998196797	-0.01799194018	0.350676626	0.7329184978	0.2743365615	-0.1145629272	-0.06108169147	-0.01767072821	-0.01476176339	-0.009460788082	-0.0005712320221	0.00357020717	0.02427271398	0.05136588472	0.09340939734	0.1595699678	0.2705024706	0.4001740869	0.4577610274	0.2371043286	0.007354518094	1	1	0	0	0
0	0.5263644141	1	0.5	2	0.6100597524	1	0.5662743942	2	1.041666667	1.025	0.9861111111	1.018518519	1	0.01666666667	-0.05555555556	1.920623228	0.9955449943	0.002499150434	-0.01697474204	0.3221528282	0.731950357	0.2900100804	-0.1117256891	-0.05798661637	-0.01636798461	-0.01415496308	-0.01706398037	-0.01267358984	-0.002213529383	0.02170351177	0.05044003165	0.1013308168	0.194151367	0.3235439923	0.4501078368	0.4081791291	0.1203021046	-0.005872939754	1	1	0	0	0
0	0.5256718502	1	0.5	2	0.6157547478	0	0.5737633259	2	0.9861111111	1.041666667	1.002777778	1.018518519	1	-0.05555555556	0.01666666667	1.800604795	0.993524248	0.003463099526	-0.008068511132	0.3779524038	0.7133551477	0.194374676	-0.1133648071	-0.06383780867	-0.02229231203	-0.01947307447	-0.01317334091	-0.006051444525	0.001071063951	0.02477223886	0.05257647655	0.09956371842	0.1756007307	0.3036509358	0.4258740004	0.4533473474	0.196143234	-0.003195333107	1	1	0	0	0
0	0.5263644141	1	0.5	2	0.6151726612	0	0.5771564476	2	1.002777778	0.9861111111	1.086111111	1.018518519	1	0.01666666667	0.08333333333	2.189492715	0.9988114823	-0.01047820238	-0.0004998286705	0.4216414503	0.761594156	0.3413742148	-0.1139462877	-0.08322517204	-0.02339850158	-0.01799195286	-0.01695690734	-0.008925307451	-0.001660150777	0.01585043719	0.03825405271	0.07533140747	0.1377151795	0.2381149188	0.3634014733	0.4775638768	0.3333538655	0.02878584737	1	1	0	0	0
0	0.5256718502	1	0.5	2	0.6097993593	1	0.5703632449	2	1.086111111	1.002777778	1.066666667	1.018518519	1	0.08333333333	-0.01944444444	2.188935108	0.9979426308	0.001410235602	-0.001267428688	0.4182450528	0.7516745102	0.26553184	-0.1099625147	-0.06168633787	-0.01431559358	-0.01510087061	-0.01472608058	-0.009335844934	-0.002427741271	0.01906265254	0.04274514182	0.08022849275	0.1400960842	0.2471868516	0.3819694304	0.4709225417	0.2935702805	0.03709538016	1	1	0	0	0
0	0.5256718502	1	0.5	2	0.6069131641	1	0.5690013326	2	1.066666667	1.086111111	1.1	1.018518519	1	-0.01944444444	0.03333333333	1.799645976	0.9977379681	0.0009818101361	-0.003338140774	0.4129434227	0.7489518383	0.2636559045	-0.1098037891	-0.0596232302	-0.01645721677	-0.0134589057	-0.01506517635	-0.01145989558	-0.004784054658	0.01906265063	0.04552448326	0.09156876233	0.1638117465	0.2882760594	0.4161218869	0.4628819321	0.2180117437	0.001017511786	1	1	0	0	0
1	0.5683199835	2	0.5152730249	0	0.6444144797	0	0.5825702065	2	1.138888889	0.9861111111	1.027777778	1.033680556	1	0.1527777778	-0.1111111111	2.297591027	0.9993028705	-0.08227948918	-0.09254729808	-0.05866860805	0.00941731511	-0.1628493364	-0.5700410435	-0.5146399781	-0.2949937668	-0.5986343685	-0.2746703364	-0.03338288058	-0.007620670685	0.02143414118	0.03567259439	0.1083707589	0.1434886429	0.2426458991	0.3226233631	0.3172843217	0.2116230446	-0.0001858724092	1	1	0	0	0
1	0.5505214477	2	0.5235935763	0	0.6172875043	0	0.5717240928	2	1.027777778	1.138888889	1.022222222	1.033680556	1	-0.1111111111	-0.005555555556	1.473094549	0.9997309555	-0.08947506793	-0.03418741614	-0.3594099606	-0.669542397	-0.3513985255	-0.4791905942	-0.5235115196	-0.1811267961	-0.08627814252	-0.04012714223	0.0004956622004	0.04012713914	0.02626409377	0.07914022338	0.1284073835	0.1899807728	0.2419460612	0.2554310242	0.2257814056	0.05372764061	-0.01734646336	1	1	0	0	0
1	0.5587550723	2	0.5249791875	0	0.6211341264	0	0.5717240928	2	1.022222222	1.027777778	1.127777778	1.033680556	1	-0.005555555556	0.1055555556	2.056848555	0.9957830596	-0.07248725555	-0.08357165783	-0.03418741415	0.05446896462	-0.1811267915	-0.5756604632	-0.3954783841	-0.2579775242	-0.5068088471	-0.172183238	-0.06397693377	-0.01839941128	0.01078025126	0.04754776133	0.08111014584	0.1799280201	0.2507919568	0.402199494	0.368011742	0.1223089842	-0.001239157669	1	1	0	0	0
1	0.5662743942	2	0.5173541374	0	0.6386517724	0	0.5532692946	2	1.127777778	1.022222222	0.9138888889	1.033680556	1	0.1055555556	-0.2138888889	1.949390969	0.9691032152	-0.07501371743	-0.06909666088	-0.05737187416	0.009974884522	-0.1794483612	-0.4532028332	-0.08554013359	-0.3949032949	-0.4102697825	-0.119073053	-0.07378141715	-0.006629395179	0.02353963894	0.08086393932	0.1259691609	0.1902196485	0.2982146691	0.3206235994	0.1856771948	0.02341579237	-0.003035927006	1	1	0	0	0
0	0.5395008458	2	0.5	2	0.5816456457	0	0.548458528	2	0.9138888889	1.127777778	1.075	1.033680556	1	-0.2138888889	0.1611111111	1.457818719	0.7136058936	-0.5356372474	-0.1480973396	-0.02719279661	0.003159846235	0.03233074405	0.07396628428	0.06903500647	0.08677010267	0.1247494886	0.147370083	0.1493091051	0.1507626204	0.1861557361	0.236338292	0.2750140078	0.3402710268	0.394484848	0.3675831396	0.2309493521	0.06089112505	-0.001425031412	1	1	0	0	0
0	0.5512087053	2	0.5	2	0.6071673465	1	0.5580701059	2	1.075	0.9138888889	0.9777777778	1.033680556	1	0.1611111111	-0.09722222222	2.537102251	0.9999897682	-0.1306004845	-0.0867701067	-0.4262183735	-0.761594156	-0.5377546033	-0.5345760562	-0.441906345	-0.1010173621	-0.02267270883	-0.00408921568	0.005390281237	0.02013358618	-0.01189534929	0.05187407463	0.1245054876	0.2016586873	0.3018230362	0.3006963413	0.2565889528	0.1298695617	0.01908069498	1	1	0	0	0
1	0.5573849184	2	0.5256718502	0	0.6424112135	0	0.5696824205	2	1.080555556	1.052777778	0.7777777778	1.075694444	1	0.02777777778	-0.3027777778	1.602312171	0.7470704121	-0.04140953129	-0.02816844066	-0.009771672395	0.02657354978	-0.1216101076	-0.3143291848	-0.0852647786	-0.1556622418	-0.2283761346	-0.05463609237	-0.01989965428	0.0007491867997	0.005993412493	0.02813589108	0.0445307876	0.09521556631	0.1515276139	0.2284687492	0.2459288334	0.1368557219	0.03711649037	1	1	0	0	0
1	0.5580701059	2	0.5256718502	0	0.6005983005	1	0.5662743942	2	0.7777777778	1.080555556	1.436111111	1.075694444	1	-0.3027777778	0.6583333333	1.828332241	0.8025074358	-0.04531096953	-0.007947714372	-0.12315021	-0.3496820196	-0.1747355524	-0.2635945292	-0.127638759	-0.02165784968	-0.006742568775	0.009804247289	0.01771801618	0.02110435928	0.03425369704	0.07024243772	0.0895316052	0.134937423	0.2015039631	0.2314304376	0.1653727611	0.05375919645	-0.004918526961	1	1	0	0	0
1	0.5277492351	1	0.5249791875	0	0.6022309743	1	0.5601243321	2	1.436111111	0.7777777778	1.105555556	1.075694444	2	0.6583333333	-0.3305555556	4.952176347	0.9999929961	-0.02449021085	0.009641394499	0.2297033037	0.4691072508	0.07620377078	-0.6393854557	-0.7564023286	-0.6143200452	-0.4477032781	-0.2989843709	-0.1431149594	-0.03008863821	-0.003517895873	0.05258987997	0.1226369141	0.2214178718	0.3158548333	0.3349592911	0.2623817146	0.1824299236	0.109140086	1	1	0	0	0
1	0.5580701059	2	0.5256718502	0	0.6311905852	0	0.5751214269	2	1.105555556	1.436111111	1.058333333	1.075694444	1	-0.3305555556	-0.04722222222	0.5145923575	0.7402251045	-0.01667597792	-0.02097411965	-0.009478540616	0.02383913387	-0.108625078	-0.2953019139	-0.07788752483	-0.1466546861	-0.2497809271	-0.07196009169	-0.02794060886	-0.004625373243	0.004951099912	0.005374538312	0.02644334141	0.0789234603	0.1160866513	0.1562342955	0.1341698128	0.06609243323	0.005863122873	1	1	0	0	0
1	0.5505214477	2	0.5332840383	1	0.6144989653	0	0.5642265442	2	1.058333333	1.105555556	1.05	1.075694444	1	-0.04722222222	-0.008333333333	1.658616953	0.8570058901	-0.03230146275	-0.004299648698	-0.1824299217	-0.3877256768	-0.1549947075	-0.2078704887	-0.258616719	-0.07322376554	-0.02800571138	-0.001465803357	0.007817427104	0.002117261757	-0.001433216576	0.02696415228	0.05090060429	0.08578214693	0.1314819413	0.1514003188	0.1409446647	0.07127957116	0.008338574541	1	1	0	0	0
1	0.5580701059	2	0.5256718502	0	0.6237637116	0	0.5717240928	2	1.05	1.058333333	1.044444444	1.075694444	1	-0.008333333333	-0.005555555556	1.848529139	0.7926796071	-0.03548997793	-0.03659602726	-0.02865664975	0.008338561339	-0.1065645389	-0.3404999955	-0.1656262164	-0.2107982098	-0.2131314385	-0.03409101453	-0.01153043225	0.000488598356	0.01784826393	0.03373311959	0.06258908411	0.1173718277	0.1758721487	0.219186408	0.1756196106	0.0538891072	-0.005179108716	1	1	0	0	0
1	0.5256718502	1	0.5401908798	1	0.6182191632	0	0.5778342099	2	0.9222222222	0.9888888889	1.005555556	1.00154321	1	-0.06666666667	0.08333333333	1.953114657	0.9929781685	-0.01256262949	0.03119672754	0.322670251	0.7036054958	0.2543787666	-0.1935529603	0.009436563768	-0.01288865671	-0.009494111346	-0.008515977188	-0.0007864038763	-0.003912819637	0.001304279586	0.006598030512	0.01373244516	0.02653971961	0.05105270483	0.06084235772	0.0603263791	0.005888374453	-0.017701862	1	1	0	0	0
1	0.5249791875	1	0.5408807599	1	0.6072243217	1	0.5724041115	2	1.005555556	0.9222222222	1.161111111	1.00154321	1	0.08333333333	0.1555555556	2.682068381	0.9991512669	0.001074115164	0.06924607031	0.426112105	0.761594156	0.365441457	-0.2232002546	-0.01517068845	-0.00634867825	-0.01302288547	-0.008189941635	-0.01120100765	-0.002685278372	0.001381009567	0.01058730495	0.01971510563	0.0394148931	0.06130097349	0.08206148272	0.07939369801	0.006770651276	-0.02607969346	1	1	0	0	0
1	0.5249791875	1	0.5408807599	1	0.6179808075	0	0.5751214269	2	1.161111111	1.005555556	0.9638888889	1.00154321	1	0.1555555556	-0.1972222222	2.137070121	0.9990006198	0.009359849114	0.08952489035	0.4738163194	0.7594512102	0.2326014796	-0.2397009613	-0.01469129259	-0.006291166226	-0.006502136268	-0.007978959145	-0.002761999233	-0.002071503101	0.0006905009971	0.001687889992	0.01281193789	0.02661638594	0.04829750907	0.06023082145	0.07336800243	0.03029607501	-0.01169964047	1	1	0	0	0
1	0.5242864286	1	0.5408807599	1	0.59991135	1	0.5587550723	2	0.9638888889	1.161111111	0.975	1.00154321	1	-0.1972222222	0.01111111111	1.298918981	0.9912665505	0.00163035022	0.05784160849	0.3659565376	0.6964457837	0.1555101589	-0.1695154362	0.02027111571	-0.0120064865	-0.006828185345	-0.005063631505	-0.003605934596	0.004910190631	0.000997390157	0.004603310026	0.005830834441	0.01802781235	0.0276897113	0.03389831413	0.04378049167	0.04577127953	0.03880204946	1	1	0	0	0
1	0.5249791875	1	0.5408807599	1	0.6301495626	0	0.5145791994	0	0.975	0.9638888889	1.033333333	1.00154321	1	0.01111111111	0.05833333333	2.187939299	0.9984754497	-0.001745430666	0.05111010013	0.3936270252	0.7498742231	0.3347483533	-0.2169765064	-0.003011340203	-0.01014618745	-0.008592697577	-0.003068884174	-0.009359852772	0.0007672278746	-0.02688473478	-0.02558135267	-0.02698056815	-0.02905044487	-0.02903128046	-0.02446957366	-0.01764433455	-0.01062566501	-0.006693941097	1	1	0	0	0
1	0.5242864286	1	0.5408807599	1	0.630521223	0	0.5124973965	0	1.033333333	0.975	1.016666667	1.00154321	1	0.05833333333	-0.01666666667	2.191866443	0.9982120794	0.004986913841	0.07762089297	0.4643166515	0.7470991267	0.1584286054	-0.213098257	0.003375771738	-0.0101270189	-0.005984276977	-0.005888371938	-0.003740196888	0.001764612108	-0.03052604471	-0.03658027323	-0.03956810853	-0.03826580056	-0.03573742543	-0.03412821899	-0.03466464091	-0.03489453136	-0.03274876388	1	1	0	0	0
1	0.5242864286	1	0.5408807599	1	0.6196478429	0	0.5764783947	2	1.016666667	1.033333333	0.9472222222	1.00154321	1	-0.01666666667	-0.06944444444	1.805983549	0.9952261221	-0.006156893034	0.05657983761	0.4053296474	0.7182404859	0.1375677995	-0.2057074669	0.00184133649	-0.01311877659	-0.006885724398	-0.00987768342	-0.008362544341	-0.001745431581	0.01012701753	0.01265852677	0.02876297923	0.04584784681	0.07100201117	0.08297588779	0.08655592868	0.04877590981	-0.007710446663	1	1	0	0	0
1	0.5249791875	1	0.5408807599	1	0.6196478429	0	0.5724041115	2	1	0.9722222222	0.9472222222	0.962037037	1	0.02777777778	-0.05277777778	2.057326163	0.9989953042	-0.004259307183	0.06282106734	0.4095420494	0.7609854775	0.3636218467	-0.2001363025	-0.01273537038	-0.003000424805	-0.004616002066	-0.00581195375	0.0003357009531	-0.002098199492	0.004364214911	0.008308655324	0.01477020848	0.03657620194	0.05976919132	0.08431465481	0.08949968482	0.0152526885	-0.004532071327	1	1	0	0	0
1	0.5249791875	1	0.5408807599	1	0.622297022	0	0.5717240928	2	0.9472222222	1	0.8944444444	0.962037037	1	-0.05277777778	-0.05277777778	1.789098628	0.9970404528	0.005728012043	0.06948499051	0.4030427618	0.732273996	0.2358445278	-0.208901707	-0.0128402419	-0.01265142915	-0.003357093093	-0.005455246156	0.001426779662	-0.001510693216	0.002937480553	0.009399651344	0.02374712181	0.04026359445	0.06854530943	0.07922932768	0.08706396496	0.01179132834	-0.005769971526	1	1	0	0	0
1	0.5242864286	1	0.5408807599	1	0.6227331046	0	0.5778342099	2	0.8944444444	0.9472222222	0.9194444444	0.962037037	1	-0.05277777778	0.025	1.973000139	0.995178116	0.02250983097	0.08254360691	0.4390940096	0.7110370608	0.1318959948	-0.1685604522	0.0003356962007	-0.008497505421	-0.01359548858	-0.01005002381	-0.005623104494	-0.005287400516	0.01116192619	0.01300806634	0.01242066713	0.04009598798	0.06394953536	0.07664335253	0.07297119563	0.004595013822	-0.02880026088	1	1	0	0	0
1	0.5249791875	1	0.5408807599	1	0.6179061485	0	0.5771564476	2	0.9194444444	0.8944444444	1.011111111	0.962037037	1	0.025	0.09166666667	2.433764215	0.9983507053	0.004532072077	0.06938059169	0.4370933224	0.7486563473	0.2637576009	-0.2001362837	-0.01256753176	-0.002664727036	-0.01025984254	-0.01005003482	-0.00285354351	-0.00226605918	0.0005874881281	0.01636444881	0.02768908556	0.04889089607	0.07230330729	0.1056885752	0.1121572578	0.07230330679	-0.009840243214	1	1	0	0	0
1	0.5242864286	1	0.5415704832	1	0.6176157554	0	0.5703632449	2	1.011111111	0.9194444444	0.9138888889	0.962037037	1	0.09166666667	-0.09722222222	2.28713668	0.998617022	0.00780512857	0.09538683382	0.466330973	0.7506140326	0.2336438547	-0.2026727888	0.01357448501	-0.009126905086	-0.01151858823	-0.006210573106	-0.005707024541	0.001594625759	-0.0006714218405	0.008140811194	0.02072720343	0.03774957344	0.06662377865	0.07405636276	0.08373131124	0.04989558079	-0.004280291988	1	1	0	0	0
1	0.5249791875	1	0.5408807599	1	0.6126691618	0	0.5710438031	2	0.9138888889	1.011111111	0.975	0.962037037	1	-0.09722222222	0.06111111111	1.805377493	0.9985814222	0.0127563319	0.09484622736	0.4656246476	0.7487024483	0.23586435	-0.2105665968	0.002874512517	-0.01030179472	-0.005958827214	-0.006798071446	-0.002853554515	-0.0006714378484	-0.00251784897	0.01007098862	0.01367936871	0.02198552522	0.04922580107	0.05366219304	0.05491739751	0.03691145566	-0.004720905456	1	1	0	0	0
1	0.5249791875	1	0.5408807599	1	0.6138877994	0	0.5703632449	2	0.975	0.9138888889	1.025	0.962037037	1	0.06111111111	0.05	2.444991528	0.9983506905	8.39E-05	0.05755278009	0.4476238174	0.7515742649	0.2109074444	-0.2083197262	-0.007133748116	-0.005958803203	-0.01330176461	-0.006210573106	-0.002685681308	-0.0004196386887	-0.0020142631	0.01166543204	0.0215661105	0.04663001998	0.06436745866	0.06871237334	0.0691300197	0.03691146266	-0.005539177615	1	1	0	0	0
1	0.5256718502	1	0.5388106603	1	0.6617298508	0	0.5249791875	0	0.6555555556	0.6472222222	0.6583333333	0.6632936508	1	0.008333333333	0.002777777778	2.423450847	0.9999352699	-0.1197307766	0.1373643835	0.5966630066	0.7472494454	0.5981947521	0.1306068958	0.01241609482	-0.024255324	-0.06351986768	-0.05859806242	-0.04680976302	-0.05637790526	-0.05402522857	-0.0452251769	-0.04055821173	-0.02019926333	0.007851289116	0.03685860872	0.07993145505	0.108259173	0.1016284436	1	1	0	0	0
1	0.5242864286	1	0.5415704832	1	0.6661717868	0	0.5263644141	0	0.6583333333	0.6555555556	0.6083333333	0.6632936508	1	0.002777777778	-0.05	2.233642985	0.9999720403	-0.09654017241	0.2787173461	0.6582068227	0.7494617672	0.5759259414	0.1229685058	0.01323197394	-0.04663371017	-0.0636955714	-0.06597958658	-0.05055014081	-0.04753592509	-0.04091050274	-0.0442567177	-0.03359857226	-0.01773004462	-0.004146233125	0.02734090125	0.06641876386	0.09367715068	0.1103511164	1	1	0	0	0
1	0.5235935763	1	0.5422600473	1	0.6597410254	0	0.530517575	1	0.6083333333	0.6583333333	0.6555555556	0.6632936508	1	-0.05	0.04722222222	2.209477926	0.9999729796	-0.08221005637	0.2935190691	0.6614941293	0.755090765	0.5564485839	0.1194916481	0.04936216442	-0.03317999599	-0.0680653753	-0.06217981149	-0.06000455738	-0.05648779897	-0.03958937156	-0.02972085336	-0.001587930951	0.03835619186	0.09481381194	0.1086078983	0.1059918221	0.08010676409	0.04566536708	1	1	0	0	0
1	0.5242864286	1	0.5381203259	1	0.6611469065	0	0.5277492351	0	0.6555555556	0.6083333333	0.65	0.6632936508	1	0.04722222222	-0.005555555556	2.667532902	0.9999471213	-0.1073654402	0.2123259378	0.6243635163	0.7507253712	0.5701789208	0.1145320586	0.03610973626	-0.02910385814	-0.05800459066	-0.0594771469	-0.04047014134	-0.04960416559	-0.02875129161	-0.02901572585	-0.02848685335	-0.01596620007	-0.005116641354	0.006616276061	0.02734087708	0.05851011196	0.0962124139	1	1	0	0	0
1	0.5235935763	1	0.5401908798	1	0.6578843874	0	0.5263644141	0	0.65	0.6555555556	0.6722222222	0.6632936508	1	-0.005555555556	0.02222222222	2.396221964	0.9999755155	-0.08185957027	0.2956942257	0.6641156582	0.7492296758	0.5785142573	0.109218085	0.02407896408	-0.03571328669	-0.07122585642	-0.06055392408	-0.06165254108	-0.04650162686	-0.05077010596	-0.03862042019	-0.0430239859	-0.02963268854	-0.002646524144	0.01896470655	0.06220181744	0.1058173706	0.1141838083	1	1	0	0	0
1	0.5256718502	1	0.5388106603	1	0.6617298508	0	0.5242864286	0	0.6722222222	0.65	0.6583333333	0.6632936508	1	0.02222222222	-0.01388888889	2.456761677	0.9999770741	-0.09166555573	0.1820593973	0.6176704693	0.7586329544	0.6342336229	0.1747354765	0.0164292217	-0.03747525991	-0.06817514071	-0.06835076361	-0.05622399287	-0.05420114861	-0.05244179861	-0.0452251769	-0.04029399237	-0.03077851205	-0.006263436253	0.009350873954	0.03077850364	0.079668477	0.1113967249	1	1	0	0	0
1	0.5263644141	1	0.5401908798	1	0.660927995	0	0.5249791875	0	0.6583333333	0.6722222222	0.6722222222	0.6632936508	1	-0.01388888889	0.01388888889	2.318828859	0.9999772464	-0.09114066469	0.133770608	0.6023283772	0.7574884921	0.64835913	0.2202724906	0.02416714265	-0.01922923983	-0.07045778766	-0.07434098264	-0.06540863867	-0.06861414604	-0.05692750892	-0.04865813598	-0.0457534158	-0.02928016338	-0.002999432561	0.01279095796	0.05015414692	0.09778539804	0.120882743	1	1	0	0	0
1	0.5249791875	1	0.5388106603	1	0.6603355501	0	0.5256718502	0	0.6722222222	0.6583333333	0.6638888889	0.6632936508	1	0.01388888889	-0.008333333333	2.420028815	0.9999706095	-0.09210290883	0.1981297772	0.6273686152	0.7595488931	0.6008366445	0.1613837234	0.04892212953	-0.02108109611	-0.0588618067	-0.06321234011	-0.05081413281	-0.05006618472	-0.05332153386	-0.04980217909	-0.03985361007	-0.03677050574	-0.02690013502	0.00211723077	0.01234994331	0.03641809546	0.08737749899	1	1	0	0	0
1	0.5242864286	1	0.5408807599	1	0.6580393816	0	0.5256718502	0	0.6638888889	0.6722222222	0.6777777778	0.6632936508	1	-0.008333333333	0.01388888889	2.350725979	0.9999804043	-0.06246544153	0.2909371537	0.6502343523	0.7515903161	0.6038859808	0.1818248147	0.03800382448	-0.02478430846	-0.07098447025	-0.06808733605	-0.0505061474	-0.06351985511	-0.05534456208	-0.04865811709	-0.04390453	-0.03809191616	-0.01958197926	0.00308763221	0.02222737462	0.0651890552	0.1110482094	1	1	0	0	0
1	0.5249791875	1	0.5381203259	1	0.658798221	0	0.5242864286	0	0.6777777778	0.6638888889	0.6777777778	0.6632936508	1	0.01388888889	8.88E-16	2.442791539	0.9999410332	-0.08404983911	0.1705201714	0.6139190292	0.7550623203	0.5690615286	0.1201655301	0.02454185663	-0.043992579	-0.06905316981	-0.06957993559	-0.05173796788	-0.05543249406	-0.05455299955	-0.04399258215	-0.03165983247	-0.02963272111	-0.02319729361	-0.008115919916	0.003440502872	0.02725274128	0.07265196782	1	1	0	0	0
1	0.5249791875	1	0.5401908798	1	0.6573042363	0	0.5235935763	0	0.6777777778	0.6777777778	0.6916666667	0.6632936508	1	8.88E-16	0.01388888889	2.396850718	0.9999826312	-0.08010676827	0.2244234011	0.630461439	0.7557724976	0.638942593	0.2010943651	0.04047014449	-0.01217354156	-0.07238870676	-0.06982137418	-0.0618503027	-0.05455300584	-0.0496261984	-0.04980219273	-0.05006618576	-0.03386293563	-0.02205104754	-0.007674867269	0.01790641268	0.0432001146	0.08369943044	1	1	0	0	0
1	0.5249791875	1	0.5395008458	1	0.6567183272	0	0.5249791875	0	0.6916666667	0.6777777778	0.6972222222	0.6632936508	1	0.01388888889	0.005555555556	2.452818966	0.9999853702	-0.07896715259	0.2516342101	0.6513658778	0.761594156	0.6179432	0.1737945059	0.05886177212	-0.01252637373	-0.06316840602	-0.05657577312	-0.06105933621	-0.05490482856	-0.05138605051	-0.05464094969	-0.0411747088	-0.02910385498	-0.03351045324	-0.02928014552	-0.01032118913	0.002558326379	0.03712289006	1	1	0	0	0
1	0.5256718502	1	0.5395008458	1	0.6208684989	0	0.5470823178	2	0.6833333333	0.6805555556	0.6305555556	0.6681623932	1	0.002777777778	-0.05277777778	2.225878087	0.9999273502	-0.1054604399	0.1447161181	0.5928830599	0.7352819821	0.6089661058	0.1671582855	0.02498107843	-0.0171341972	-0.05664383201	-0.05119399366	-0.03640819928	-0.0392109186	-0.01719750341	0.007639231495	0.02905102675	0.03999051569	0.03906342306	0.04192875675	0.02599343211	0.01527763581	0.01645912669	1	1	0	0	0
1	0.5235935763	1	0.5422600473	1	0.6581893391	0	0.5277492351	0	0.6305555556	0.6833333333	0.6694444444	0.6681623932	1	-0.05277777778	0.03888888889	2.171564331	0.999978006	-0.09731478372	0.2869265157	0.6648877389	0.7517264831	0.5819648113	0.1295178654	0.03645032969	-0.02902994883	-0.05843165211	-0.05060458506	-0.05220419445	-0.04597269006	-0.03231893467	-0.02055168098	-0.01595271105	-0.007681415413	0.01645911512	0.05700142707	0.09306966096	0.1061907628	0.09812995716	1	1	0	0	0
1	0.5249791875	1	0.5381203259	1	0.6594078349	0	0.5242864286	0	0.6694444444	0.6305555556	0.6722222222	0.6681623932	1	0.03888888889	0.002777777778	2.625098778	0.9990437276	-0.09455484361	0.08018872588	0.5194850024	0.6956922862	0.500230709	0.0645494502	0.02474907604	-0.04508823579	-0.04622544524	-0.02702673286	-0.04344541444	-0.03486957809	-0.0114796691	-0.02202823933	-0.01831557514	0.005064765244	0.009791631873	0.02531854216	0.05557095098	0.07960163823	0.1057108787	1	1	0	0	0
1	0.5256718502	1	0.5415704832	1	0.6614138966	0	0.5256718502	0	0.6722222222	0.6694444444	0.6611111111	0.6681623932	1	0.002777777778	-0.01111111111	2.343343864	0.9996818682	-0.08379410196	0.1734695405	0.5701778268	0.6904063079	0.5670075249	0.1446541081	0.04123350506	-0.002068133634	-0.03602883688	-0.02987339322	-0.02818654755	-0.0242218541	-0.02641520749	-0.03029508044	-0.02261890855	-0.0127457512	-0.01426490245	-0.0008441603861	0.02076262151	0.03206596202	0.06641958091	1	1	0	0	0
1	0.5256718502	1	0.5388106603	1	0.6623673589	0	0.5270568766	0	0.6611111111	0.6722222222	0.6527777778	0.6681623932	1	-0.01111111111	-0.008333333333	2.271235035	0.9998678642	-0.09124924261	0.1732239386	0.5834143874	0.7176986447	0.5943863903	0.145418566	0.004642726095	-0.03145456874	-0.05521322911	-0.05809510403	-0.04555150071	-0.04024327391	-0.04942577094	-0.04513033533	-0.02936732518	-0.006499730646	0.002279146116	0.02076264767	0.0503520133	0.08748103339	0.1189629667	1	1	0	0	0
1	0.5242864286	1	0.5422600473	1	0.6595704793	0	0.5277492351	0	0.6527777778	0.6611111111	0.6638888889	0.6681623932	1	-0.008333333333	0.01111111111	2.345120543	0.9999341615	-0.06713394433	0.2589211234	0.6395908852	0.736993108	0.547542732	0.1042916476	0.04538304874	-0.02797565622	-0.04582533268	-0.02711108405	-0.04129674119	-0.03109624266	-0.0410017697	-0.02337816368	-0.00936957926	-0.01333647959	0.002447971252	0.01375846631	0.04925736793	0.08898864741	0.1023708976	1	1	0	0	0
1	0.5249791875	1	0.5401908798	1	0.6584960223	0	0.5242864286	0	0.6638888889	0.6527777778	0.6805555556	0.6681623932	1	0.01111111111	0.01666666667	2.481248793	0.999343034	-0.08588925478	0.1315714739	0.5556472917	0.6923670802	0.5101013041	0.08446464959	0.02548725225	-0.02008761806	-0.04369814064	-0.03510141173	-0.03162325101	-0.0430662424	-0.04361391058	-0.03695610351	-0.0319816456	-0.03248761565	-0.003545344893	0.01105766052	0.0354808164	0.07559517614	0.08829769998	1	1	0	0	0
1	0.5249791875	1	0.5401908798	1	0.6594078349	0	0.5277492351	0	0.6805555556	0.6638888889	0.6722222222	0.6681623932	1	0.01666666667	-0.008333333333	2.43458583	0.9998711782	-0.09298601236	0.2107596194	0.6013290712	0.7135598083	0.5782684989	0.1491966406	0.0468992764	0.01704980681	-0.02531849992	-0.03274056329	-0.01063564599	-0.01755610825	-0.05565510194	-0.05508706088	-0.03670321996	-0.03177086764	-0.03598668509	-0.02297745738	-0.008040196959	0.003186575429	0.02540286068	1	1	0	0	0
1	0.5249791875	1	0.5388106603	1	0.6603355501	0	0.5263644141	0	0.6722222222	0.6805555556	0.6638888889	0.6681623932	1	-0.008333333333	-0.008333333333	2.285764521	0.9999004905	-0.08119513452	0.1936163439	0.6113372719	0.7274201029	0.5759884378	0.110632929	0.007597001262	-0.03037939569	-0.06936045394	-0.05325647165	-0.05043623806	-0.04485658449	-0.04117034897	-0.03602882884	-0.03307790002	-0.02405310627	-0.008356698417	0.002025910184	0.01747172714	0.05641240984	0.09311150871	1	1	0	0	0
1	0.5242864286	1	0.5422600473	1	0.6601954865	0	0.5249791875	0	0.6638888889	0.6722222222	0.6583333333	0.6681623932	1	-0.008333333333	-0.005555555556	2.294905645	0.9998756486	-0.07120838148	0.2598068946	0.6253223668	0.7219187497	0.5328527354	0.06927642733	0.009538378176	-0.04740462154	-0.06608344687	-0.05864198165	-0.05062568244	-0.04015906963	-0.04993103535	-0.03990623636	-0.03290926979	-0.02380005436	-0.01198612993	0.004980316096	0.03096967869	0.06478059456	0.1021829162	1	1	0	0	0
1	0.5256718502	1	0.5388106603	1	0.6574679018	0	0.5263644141	0	0.6583333333	0.6638888889	0.6972222222	0.6681623932	1	-0.005555555556	0.03888888889	2.443947686	0.9999785708	-0.08052424656	0.1764153716	0.6194268674	0.761594156	0.6329468673	0.1726097166	0.05624410538	-0.003376538949	-0.05889434615	-0.0380730443	-0.03349950957	-0.0387262807	-0.02795453427	-0.02312504941	-0.02046730194	0.0003376697564	0.01512991746	0.03181301541	0.07758820937	0.110778832	0.09978078823	1	1	0	0	0
1	0.5256718502	1	0.5395008458	1	0.6014761643	1	0.5374298453	1	0.525	0.5277777778	0.5611111111	0.535130719	1	-0.002777777778	0.03611111111	2.4778114	0.9969254877	-0.07790732762	-0.04999932031	0.3481924264	0.6817694706	0.1717634003	-0.4500298093	-0.2257259267	-0.0555067313	-0.007313847316	0.03133536284	0.07438285414	0.1359908303	0.2151105894	0.3118210975	0.3799425709	0.4113181814	0.3895120721	0.3135718025	0.1776602454	0.07464260672	0.008806397003	1	1	0	0	0
1	0.5263644141	1	0.5395008458	1	0.6081019362	1	0.5408807599	2	0.5611111111	0.525	0.5472222222	0.535130719	1	0.03611111111	-0.01388888889	2.588431598	0.9964211092	-0.07167328401	-0.0694454595	0.3014083782	0.6466155824	0.2750988345	-0.4472280851	-0.3160259312	-0.1035900412	-0.03334832976	0.002500176741	0.04445161676	0.08828363098	0.1572047264	0.2573825506	0.3596170514	0.3994687429	0.3931778093	0.3031715003	0.1631675333	0.06394725037	0.004477917658	1	1	0	0	0
1	0.5256718502	1	0.5401908798	1	0.6036185647	1	0.5374298453	1	0.5472222222	0.5611111111	0.5472222222	0.535130719	1	-0.01388888889	4.44E-16	2.263859376	0.9844849499	-0.07701711641	-0.08098503205	0.221826697	0.5521985985	0.02328111606	-0.4999914248	-0.2636435835	-0.0815410711	-0.03931101847	0.008881025308	0.06011847112	0.116418754	0.1770819763	0.2753747431	0.3402319299	0.3742127557	0.3738276049	0.3176037588	0.1925075438	0.08857981838	0.03178270935	1	1	0	0	0
1	0.5249791875	1	0.5408807599	1	0.6038749083	1	0.5381203259	1	0.5472222222	0.5472222222	0.5444444444	0.535130719	1	4.44E-16	-0.002777777778	2.350379054	0.9870647645	-0.07029954782	-0.02760698632	0.3254997507	0.5649320646	0.0476912424	-0.4755093314	-0.2490708498	-0.0602300163	-0.02902386619	0.01380612529	0.0564739187	0.1154615739	0.1835804358	0.2575219233	0.3278997542	0.3774173352	0.4083375234	0.373442327	0.220797537	0.106321018	0.02283355595	1	1	0	0	0
1	0.5249791875	1	0.5408807599	1	0.6044294613	1	0.5367392212	1	0.5444444444	0.5472222222	0.5194444444	0.535130719	1	-0.002777777778	-0.025	2.248897286	0.9899782046	-0.06929692482	-0.02820358761	0.3460262888	0.6123919799	0.0208940398	-0.4443876196	-0.1970668952	-0.06324111144	-0.02104324046	0.01626843758	0.05755257115	0.1184060503	0.1966723144	0.2827041672	0.354407476	0.3865959677	0.3823984499	0.3128987075	0.1760696971	0.07449417452	0.02492207237	1	1	0	0	0
1	0.5249791875	1	0.5415704832	1	0.605350594	1	0.5381203259	1	0.5194444444	0.5444444444	0.5194444444	0.535130719	1	-0.025	4.44E-16	2.1759778	0.9987415339	-0.06383574675	0.006791456889	0.4659529471	0.6969054088	0.1793943392	-0.4506545162	-0.2463738374	-0.05576714509	0.001716545675	0.0254441678	0.05040876443	0.1212013717	0.1844456952	0.2766502506	0.3329525096	0.4040999685	0.4289253383	0.36503073	0.2303247949	0.09609039514	0.01164213645	1	1	0	0	0
1	0.5249791875	1	0.5374298453	1	0.6037774202	1	0.5360484561	1	0.5194444444	0.5194444444	0.5166666667	0.535130719	1	4.44E-16	-0.002777777778	2.34214276	0.9953560182	-0.09161491272	-0.06368709971	0.3387462345	0.6571934824	0.1316663819	-0.459295147	-0.2109783775	-0.05911451898	0.005112278251	0.03610640179	0.082022938	0.1578233545	0.2220395596	0.3246320507	0.412929057	0.4173764364	0.3835448062	0.2820173474	0.1694084242	0.0597838422	0.03055247264	1	1	0	0	0
1	0.5256718502	1	0.5388106603	1	0.605350594	1	0.5367392212	1	0.5166666667	0.5194444444	0.5194444444	0.535130719	1	-0.002777777778	0.002777777778	2.34214276	0.9940596236	-0.08991251165	-0.08672834571	0.2744778556	0.6307989491	0.1110410599	-0.4916331797	-0.2510998389	-0.0769429294	-0.015485	0.02954583691	0.07579287488	0.1376752372	0.2017967048	0.3089885619	0.3867229174	0.4103256066	0.3968310883	0.304932558	0.1662170755	0.06052746331	0.01138096113	1	1	0	0	0
1	0.5249791875	1	0.5395008458	1	0.6073172282	1	0.5374298453	1	0.5194444444	0.5166666667	0.5	0.535130719	1	0.002777777778	-0.01944444444	2.297820544	0.9879719212	-0.09886251691	-0.06625105946	0.2729934814	0.5897543521	0.09006055136	-0.4779027457	-0.2066600179	-0.06316677013	-0.01264951174	0.0262645821	0.07074511803	0.143747048	0.2198744056	0.3000507047	0.3883719035	0.4020997904	0.3735707536	0.3149170427	0.1837246542	0.0238778281	-0.00138071564	1	1	0	0	0
1	0.5256718502	1	0.5367392212	1	0.6031222226	1	0.5346665134	1	0.5	0.5194444444	0.5138888889	0.535130719	1	-0.01944444444	0.01388888889	2.255462585	0.9849945833	-0.07864909416	-0.06989110568	0.2112635973	0.5912612172	0.1027778328	-0.4587944594	-0.2289108415	-0.07271270158	-0.007463112012	0.04203059565	0.06792270975	0.1122202988	0.2046229509	0.3297302519	0.4073420342	0.392546683	0.3635096031	0.247179851	0.1200246381	0.05617634233	0.006269032173	1	1	0	0	0
1	0.5249791875	1	0.5374298453	1	0.6023194826	1	0.5353575526	1	0.5138888889	0.5	0.5222222222	0.535130719	1	0.01388888889	0.008333333333	2.497688541	0.9941043559	-0.1091978711	-0.07148766098	0.3152195636	0.6665866571	0.1556029731	-0.4174380563	-0.152506383	-0.03770879975	-0.0335719663	0.0267866455	0.0495154157	0.1284014026	0.2329380316	0.3286988109	0.3751750659	0.3762326797	0.335273045	0.2150393988	0.09031964758	0.003806230597	-0.04102481126	1	1	0	0	0
1	0.5256718502	1	0.5374298453	1	0.6031001233	1	0.5360484561	1	0.5222222222	0.5138888889	0.5333333333	0.535130719	1	0.008333333333	0.01111111111	2.463974577	0.9929420018	-0.07107927883	-0.0477284722	0.2936535087	0.6497315156	0.1573502992	-0.4358427462	-0.1991104525	-0.04102481015	0.005373477557	0.02850186119	0.04966429606	0.09583157139	0.1959547361	0.3034425539	0.3720285132	0.402224913	0.3667437071	0.2644767124	0.1363204344	0.02164001496	-0.0009329140587	1	1	0	0	0
1	0.5249791875	1	0.5408807599	1	0.5983336322	1	0.5353575526	1	0.5333333333	0.5222222222	0.5666666667	0.535130719	1	0.01111111111	0.03333333333	2.579011838	0.9863182721	-0.05695746684	-0.03401925852	0.3106078226	0.6009792702	-0.05249295014	-0.4448367021	-0.1697708477	-0.04244034564	-0.006866076208	0.02134163317	0.06454184211	0.1396881494	0.2196613311	0.3185429023	0.3638981502	0.3936824493	0.3766490521	0.2702976081	0.1317763882	0.05055764343	0.008918340536	1	1	0	0	0
1	0.5249791875	1	0.5408807599	1	0.601794579	1	0.5388106603	1	0.5666666667	0.5333333333	0.5777777778	0.535130719	1	0.03333333333	0.01111111111	2.66503211	0.9923537999	-0.07360349306	-0.02701036914	0.3391756134	0.6030729182	0.0655822757	-0.4850404236	-0.2477753715	-0.07141342191	-0.0138807458	0.004030124026	0.03893842387	0.09154089799	0.1579325133	0.2582186106	0.3284325064	0.3780571603	0.3882451505	0.3305614565	0.2251946327	0.09420449123	0.02372865528	1	1	0	0	0
1	0.5249791875	1	0.5415704832	1	0.6055344619	1	0.5408807599	2	0.5777777778	0.5666666667	0.5555555556	0.535130719	1	0.01111111111	-0.02222222222	2.365022874	0.9938829054	-0.07434573481	-0.002238964047	0.3744694559	0.610241877	0.111630732	-0.4711660268	-0.2639560565	-0.1007836184	-0.05048320454	-0.01820830313	0.009701909274	0.05758976232	0.1290986566	0.2384711772	0.326833611	0.3684219792	0.3616946442	0.2738911732	0.1263456021	0.01835752152	-0.02566791377	1	1	0	0	0
1	0.5256718502	1	0.5408807599	1	0.6090275886	1	0.5401908798	2	0.5611111111	0.5583333333	0.5194444444	0.5325163399	1	0.002777777778	-0.04166666667	2.235390206	0.7306734184	-0.04841326132	-0.02403225529	0.1457036385	0.3104655853	0.05453336243	-0.2250466407	-0.1234725266	-0.03789940866	-0.006808978718	0.005857384843	0.01962076623	0.05041007924	0.06362398872	0.1005483649	0.1445311192	0.1725682398	0.1777211612	0.1661297653	0.1312203324	0.05886734673	0.02257278922	1	1	0	0	0
1	0.5256718502	1	0.5395008458	1	0.6049757794	1	0.5360484561	1	0.5194444444	0.5611111111	0.5138888889	0.5325163399	1	-0.04166666667	-0.005555555556	2.051724653	0.7091273826	-0.04486059783	-0.03842368065	0.1267995279	0.3029742521	0.02332713078	-0.2204466129	-0.0920794447	-0.0253768427	-0.003396324615	0.01415866519	0.03211469856	0.06398348133	0.09773778185	0.1383245497	0.1743187617	0.1850836456	0.1756865859	0.1261214364	0.05952134268	0.005512841164	-0.0006562965481	1	1	0	0	0
1	0.5256718502	1	0.5395008458	1	0.6054419572	1	0.5353575526	1	0.5138888889	0.5194444444	0.5	0.5325163399	1	-0.005555555556	-0.01388888889	2.255462585	0.6844408924	-0.0217364179	-0.03183605822	0.1313493281	0.2815922775	-0.01027068775	-0.2119225361	-0.06813277798	-0.004069018784	0.001246964549	0.01492965051	0.03542521675	0.05585831422	0.09604742959	0.1395957071	0.164214589	0.1760045857	0.154748519	0.100873185	0.0464160535	0.001640739645	-0.007481649223	1	1	0	0	0
1	0.5249791875	1	0.5360484561	1	0.6036679976	1	0.5353575526	1	0.5	0.5138888889	0.5083333333	0.5325163399	1	-0.01388888889	0.008333333333	2.274114841	0.6773554131	-0.03631007883	-0.02867232413	0.1291880455	0.2717591039	-0.003150216122	-0.2081114001	-0.07400959805	-0.01593026406	0.005512840993	0.01127142493	0.04029122959	0.07507015849	0.1104292141	0.155773282	0.1667678786	0.1688089035	0.1343150243	0.08970374996	0.03865304513	-0.01035271651	-0.009417587641	1	1	0	0	0
1	0.5256718502	1	0.5367392212	1	0.6012777508	1	0.5346665134	1	0.5083333333	0.5	0.5333333333	0.5325163399	1	0.008333333333	0.025	2.522324918	0.7008594643	-0.03929195917	-0.03521218588	0.1176517255	0.2905706944	-0.02247439461	-0.2280818523	-0.08735959628	-0.03745703551	-0.01063161394	0.01896471485	0.04538456453	0.0818047077	0.1104616273	0.1544282126	0.1831815115	0.179690705	0.1496839131	0.09338075088	0.04708728841	0.01384698318	-0.008482436869	1	1	0	0	0
1	0.5256718502	1	0.5381203259	1	0.6156450647	0	0.5374298453	1	0.5333333333	0.5083333333	0.4361111111	0.5325163399	1	0.025	-0.09722222222	2.177455985	0.6874770262	-0.03519579858	-0.02744273734	0.1151268391	0.2761146598	0.002920513129	-0.2235351853	-0.09357592154	-0.02604910431	-0.005562061676	0.01017225705	0.03721126947	0.06455537086	0.09315304497	0.1442258763	0.1691914349	0.1797542156	0.167979911	0.1251525288	0.07715814022	0.02027680333	0.004922188244	1	1	0	0	0
1	0.5263644141	1	0.5395008458	1	0.7262119934	0	0.5415704832	2	0.4361111111	0.5333333333	0.3083333333	0.5325163399	1	-0.09722222222	-0.1277777778	1.301572175	0.714181581	-0.04289549448	-0.03673610043	0.1135723231	0.2932873461	0.0631827708	-0.2314698192	-0.1187518381	-0.04273172231	-0.02750831791	-0.01916153236	0.007219143078	0.02467176585	-0.03444197478	-0.0002625187829	0.107089266	0.2840226004	0.6306345471	0.7543907522	0.2537663141	-0.2421868176	-0.258671995	1	1	0	0	0
0	0.521514485	1	0.5	2	0.598749895	1	0.5491463565	2	0.3083333333	0.4361111111	0.9305555556	0.5325163399	1	-0.1277777778	0.6222222222	5.273902129	0.9999849034	0.2161339532	0.4275121441	0.669591341	0.761594156	0.5695875623	0.04531907238	-0.2421868176	-0.2771298414	-0.2209460709	-0.1893900015	-0.1836254683	-0.1860975536	-0.06115611514	0.0005906623228	0.05762460941	0.09351086229	0.3127173743	0.6530508718	0.4587426593	0.003937763535	-0.1195282205	1	1	0	0	0
0	0.5256718502	1	0.5	2	0.6110561706	0	0.5443277579	2	0.9305555556	0.3083333333	0.5444444444	0.5325163399	2	0.6222222222	-0.3861111111	12.46239227	0.9995872086	0.14094681	0.3127173743	0.5569526354	0.6738771776	0.5255234956	0.1714218477	-0.02135922287	-0.09955753177	-0.1481437331	-0.1670868902	-0.1155801374	-0.07813665136	-0.04669438225	-0.006169118057	0.05782084182	0.08635001095	0.08524251889	0.07322631259	0.04932988391	0.02654098794	0.008925403419	1	1	0	0	0
1	0.5263644141	1	0.5401908798	1	0.6137920814	0	0.5457053876	2	0.5444444444	0.9305555556	0.5527777778	0.5325163399	1	-0.3861111111	0.008333333333	0.9773559941	0.7202067852	6.56E-05	0.007629307222	0.1559653894	0.3140786049	0.06524158136	-0.196656183	-0.1144630019	-0.0447950963	-0.0195551614	-0.005512840602	0.01168155707	0.03136071765	0.05762461152	0.08732703591	0.1032599503	0.1097484529	0.0940312862	0.08094087322	0.04774211142	0.0302460712	0.002100147713	1	1	0	0	0
1	0.5263644141	1	0.5388106603	1	0.6103605935	1	0.5415704832	2	0.5527777778	0.5444444444	0.5333333333	0.5325163399	1	0.008333333333	-0.01944444444	2.350194558	0.6807833217	-0.05144106667	-0.05769002355	0.07396064845	0.2513239213	0.02149042543	-0.2320287629	-0.1269771011	-0.0359987438	-0.01458516789	-0.001558703031	0.01739012182	0.04048779749	0.07609791756	0.1182827081	0.142538515	0.1617549685	0.1504697693	0.1174413724	0.05814788656	0.01246899649	-0.008728533318	1	1	0	0	0
1	0.5249791875	1	0.5401908798	1	0.606270979	1	0.5381203259	1	0.5333333333	0.5527777778	0.5194444444	0.5325163399	1	-0.01944444444	-0.01388888889	2.171344008	0.7139774446	-0.03416337441	-0.02855756882	0.1365860238	0.3007075415	0.04250243825	-0.2229427804	-0.1064404528	-0.02783621355	-0.0002789241172	0.0130267616	0.03168853766	0.06130322257	0.08994787624	0.1252171323	0.1544762615	0.1668954844	0.1614034267	0.1331548188	0.07846278714	0.03260640593	0.00288769853	1	1	0	0	0
1	0.5256718502	1	0.5381203259	1	0.6152343585	0	0.5381203259	1	0.5194444444	0.5333333333	0.4472222222	0.5325163399	1	-0.01388888889	-0.07222222222	1.995724576	0.6880062676	-0.03529412255	-0.04269896809	0.1070081689	0.2762359073	0.01930914337	-0.2221786379	-0.1037631321	-0.03168853981	-0.003904946645	0.01740652612	0.03824346465	0.06241466103	0.08524252021	0.1199810381	0.149363101	0.167405853	0.1682350102	0.1404965015	0.0862197308	0.03470417843	0.006005048632	1	1	0	0	0
1	0.5256718502	1	0.5360484561	1	0.7080225498	0	0.533975341	1	0.4472222222	0.5194444444	0.3777777778	0.5325163399	1	-0.07222222222	-0.06944444444	1.587601411	0.6673807535	-0.05049190552	-0.05361723458	0.08068006714	0.2457205034	-0.02037520327	-0.2275529499	-0.09155883231	-0.02401585533	-0.009581642961	0.01463438471	0.03175410557	0.05222650882	-0.01538895699	-0.003379918979	0.04145421124	0.1788014109	0.4223763265	0.5645562586	0.5766391174	0.5644221154	0.3755716202	1	1	0	0	0
0	0.5270568766	1	0.5	2	0.6336439759	0	0.5429494495	2	0.3777777778	0.4472222222	0.7083333333	0.5325163399	1	-0.06944444444	0.3305555556	3.537082486	0.9997481546	0.1071379234	0.3236589434	0.5280484614	0.579828192	0.5714468114	0.4962607786	0.1119848437	-0.1267672423	-0.1686813776	-0.1886305791	-0.2129408966	-0.2155707987	0.03358977223	0.04545006077	0.1132483966	0.3198199017	0.5432801854	0.6496406928	0.3194074271	0.002231402396	-0.09178660841	1	1	0	0	0
0	0.5270568766	1	0.5	2	0.6286324831	0	0.5546420091	2	0.6972222222	0.6972222222	0.6777777778	0.6863247863	1	-1.11E-16	-0.01944444444	2.29752064	0.9999697715	0.1637074198	0.4155668525	0.6137473027	0.6897424784	0.582256977	0.3122024279	-0.05090730631	-0.2615887178	-0.2927472075	-0.2464708823	-0.1800088993	-0.127712127	-0.1333464761	-0.09335052909	-0.02356064667	0.03171453743	0.09058769358	0.1258909128	0.116909809	0.09388319817	0.09463279091	2	0	1	0	0
0	0.5263644141	1	0.5	2	0.6241382518	0	0.5505214477	2	0.6777777778	0.6972222222	0.675	0.6863247863	1	-0.01944444444	-0.002777777778	2.237296132	0.9999603688	0.1163404729	0.3755535889	0.6046355231	0.6897007325	0.5722243938	0.2642566067	-0.1228536995	-0.2922376134	-0.2926016338	-0.2294982404	-0.1712904166	-0.1333464743	-0.1535408282	-0.109148655	-0.03791669182	0.0421293417	0.1055287266	0.1444136219	0.1477443871	0.1328577238	0.1332878335	2	0	1	0	0
0	0.5277492351	1	0.5	2	0.6250844774	0	0.5498339973	2	0.675	0.6777777778	0.6555555556	0.6863247863	1	-0.002777777778	-0.01944444444	2.286443942	0.9999847058	0.06903261534	0.3369684858	0.5948485439	0.7120501783	0.6171597539	0.3016019785	-0.1153979584	-0.3027594416	-0.2996467275	-0.2319855337	-0.1652565683	-0.1268505794	-0.1420937766	-0.1034420453	-0.0389103567	0.03437862081	0.09940394575	0.137019838	0.1322515736	0.1141998913	0.1108592498	2	0	1	0	0
0	0.5277492351	1	0.5	2	0.6218016774	0	0.5470823178	2	0.6555555556	0.675	0.6472222222	0.6863247863	1	-0.01944444444	-0.008333333333	2.224110643	0.9999830134	0.06029220737	0.3293425198	0.5921153031	0.7162242097	0.6096118877	0.2647749054	-0.1501964851	-0.3142846158	-0.2992843607	-0.2188372178	-0.1560273523	-0.1285734592	-0.1491847313	-0.08740872271	-0.003184449484	0.07942395162	0.1313910584	0.1525301137	0.133483314	0.1206576185	0.1238728976	2	0	1	0	0
0	0.5263644141	1	0.5	2	0.6171863931	0	0.5470823178	2	0.6472222222	0.6555555556	0.6916666667	0.6863247863	1	-0.008333333333	0.04444444444	2.447637636	0.9999927914	0.1054106318	0.3866453567	0.6348282588	0.7302697043	0.6108111131	0.2457229822	-0.1712131384	-0.3163638009	-0.2992118866	-0.2279138436	-0.1692032049	-0.136004175	-0.1582014537	-0.09841853535	-0.008757044464	0.071092343	0.1281819673	0.1425617705	0.128925775	0.117753844	0.1180678633	2	0	1	0	0
0	0.5270568766	1	0.5	2	0.6181971893	0	0.5491463565	2	0.6916666667	0.6472222222	0.7277777778	0.6863247863	1	0.04444444444	0.03611111111	2.757398748	0.9999964809	0.119873023	0.4074826767	0.6516279039	0.7428330853	0.6097619435	0.2441514418	-0.1780053223	-0.3304067354	-0.3073803717	-0.2340935978	-0.178313662	-0.1463813066	-0.1676561535	-0.1180678871	-0.04439401938	0.0498352819	0.1066700953	0.137410395	0.1288866397	0.1078308557	0.1105053832	2	0	1	0	0
0	0.5270568766	1	0.5	2	0.6262487114	0	0.5553280553	2	0.7277777778	0.6916666667	0.7138888889	0.6863247863	1	0.03611111111	-0.01388888889	2.516375365	0.9999948775	0.1957910557	0.4586352038	0.6514446358	0.7187351099	0.6115093657	0.3381147783	-0.04995440103	-0.2939113807	-0.3269982567	-0.2747402415	-0.2038546401	-0.1530743828	-0.1607424194	-0.1263609836	-0.06304817347	0.008597828631	0.07896905617	0.125283659	0.1161834101	0.09648657814	0.08567038776	2	0	1	0	0
0	0.5277492351	1	0.5	2	0.6276369474	0	0.5539557547	2	0.7138888889	0.7277777778	0.6888888889	0.6863247863	1	-0.01388888889	-0.025	2.20245434	0.9999826707	0.1012362793	0.3553092039	0.5852484659	0.7041113917	0.6162717724	0.3214413544	-0.08268634894	-0.293838656	-0.3078849123	-0.2532631814	-0.1883920553	-0.1381913929	-0.1487176661	-0.09895068251	-0.0295272806	0.03360329258	0.09611192109	0.1300412209	0.1248918249	0.1002709325	0.1028907049	2	0	1	0	0
0	0.5263644141	1	0.5	2	0.6208913655	0	0.5505214477	2	0.6888888889	0.7138888889	0.6944444444	0.6863247863	1	-0.025	0.005555555556	2.226752984	0.9999888729	0.1245783374	0.3972911944	0.6315852664	0.7164955041	0.5954654746	0.2709823575	-0.1317039943	-0.3103330763	-0.3142128761	-0.2496834987	-0.18208795	-0.1421717946	-0.1676561369	-0.1223047777	-0.04685682792	0.04465223875	0.1074570843	0.1377228126	0.1379571095	0.1119206713	0.1060797697	2	0	1	0	0
0	0.5263644141	1	0.5	2	0.6259715904	0	0.5532692946	2	0.6944444444	0.6888888889	0.6722222222	0.6863247863	1	0.005555555556	-0.02222222222	2.3228259	0.9999960944	0.1285538945	0.4143806203	0.6481328356	0.7383760005	0.6201573496	0.2823773338	-0.1421717846	-0.3197985214	-0.3114837333	-0.2419041608	-0.1755373607	-0.138269486	-0.1557166348	-0.09650627968	-0.005731958054	0.07758439184	0.1266939168	0.1426397636	0.1312541398	0.1066897736	0.1098172478	2	0	1	0	0
0	0.5270568766	1	0.5	2	0.621040669	0	0.5498339973	2	0.6722222222	0.6944444444	0.6833333333	0.6863247863	1	-0.02222222222	0.01111111111	2.260339556	0.9999992998	0.1293563423	0.4177379558	0.6561848552	0.761594156	0.6738973723	0.3603419993	-0.09035082499	-0.3222263759	-0.3242226111	-0.2517724813	-0.1855494091	-0.1454463165	-0.1703629415	-0.1128835831	-0.02767782278	0.05721790913	0.110603686	0.125048567	0.1199514844	0.09757092955	0.09484976168	2	0	1	0	0
0	0.5270568766	1	0.5	2	0.6271995154	0	0.5539557547	2	0.7166666667	0.6972222222	0.7027777778	0.6998015873	1	0.01944444444	-0.01388888889	2.419294311	0.99998283	0.1104992061	0.3747675624	0.6067715886	0.696652018	0.6067715896	0.3320245602	-0.07379235539	-0.2925408062	-0.3121184181	-0.256452364	-0.1924959629	-0.143945998	-0.1686652895	-0.1264331461	-0.0499955803	0.02574849436	0.1011570582	0.1385039779	0.1339896726	0.1165326387	0.1205774039	2	0	1	0	0
0	0.5263644141	1	0.5	2	0.624330981	0	0.5525826312	2	0.7027777778	0.7166666667	0.7	0.6998015873	1	-0.01388888889	-0.002777777778	2.262019657	0.999987551	0.08505424385	0.3686606564	0.62163445	0.7228755433	0.5907710489	0.1897810867	-0.2286078297	-0.3349709454	-0.2945856578	-0.2230236065	-0.1691684967	-0.1395605491	-0.1629024458	-0.1236593821	-0.05652430268	0.0263903511	0.09214627467	0.1354747227	0.14751516	0.1315064411	0.119147885	2	0	1	0	0
0	0.5270568766	1	0.5	2	0.6211480098	0	0.5518957673	2	0.7	0.7027777778	0.7388888889	0.6998015873	1	-0.002777777778	0.03888888889	2.439965398	0.9999966461	0.1197606008	0.4109761483	0.6538715628	0.7382144487	0.6169852782	0.2870748236	-0.1379349194	-0.3174942192	-0.3071729834	-0.238324397	-0.175200013	-0.1409417594	-0.1718038458	-0.1371828057	-0.06515289506	0.01740252513	0.0867406969	0.1310584795	0.1365118735	0.1279212026	0.1264739276	2	0	1	0	0
0	0.5270568766	1	0.5	2	0.6300123641	0	0.5553280553	2	0.7388888889	0.7	0.6972222222	0.6998015873	1	0.03888888889	-0.04166666667	2.449467069	0.9999995503	0.1753606728	0.4690626448	0.6854383922	0.761594156	0.646118128	0.317047009	-0.1286548158	-0.3483666761	-0.3630615281	-0.2994973607	-0.2285292897	-0.1794543829	-0.1933736907	-0.153751908	-0.07216424207	0.01361179308	0.08612376024	0.1218839647	0.1252096712	0.1017517367	0.102264322	2	0	1	0	0
0	0.5277492351	1	0.5	2	0.6301861665	0	0.5518957673	2	0.6972222222	0.7388888889	0.6694444444	0.6998015873	1	-0.04166666667	-0.02777777778	2.057833088	0.9999891643	0.1399668537	0.3970198017	0.5992827185	0.7010194077	0.6217869756	0.3569299359	-0.02187616327	-0.2806741458	-0.3289977702	-0.2949640326	-0.2276650642	-0.1693295006	-0.1579770487	-0.128084235	-0.06884500914	-0.004019534596	0.05778406639	0.1053592392	0.1177587489	0.1032073529	0.09296794992	2	0	1	0	0
0	0.5284414867	1	0.5	2	0.6277786751	0	0.5512087053	2	0.6694444444	0.6972222222	0.6611111111	0.6998015873	1	-0.02777777778	-0.008333333333	2.178005942	0.999949321	0.05995205315	0.3147341834	0.5591025066	0.6781202329	0.595765778	0.3144354851	-0.09017373933	-0.2901138105	-0.2972323668	-0.2433988852	-0.1827409099	-0.1316693243	-0.1422412168	-0.1072438821	-0.04861075656	0.008888376858	0.06034429253	0.1111745415	0.1279823364	0.1121157551	0.1111745457	2	0	1	0	0
0	0.5270568766	1	0.5	2	0.6217558267	0	0.5491463565	2	0.6611111111	0.6694444444	0.675	0.6998015873	1	-0.008333333333	0.01388888889	2.351432826	0.9999497612	0.04397956488	0.3076232591	0.5892041957	0.702323671	0.5634169998	0.1770470612	-0.2079293367	-0.3107713363	-0.2740184771	-0.199429394	-0.1454065785	-0.1305289934	-0.1546418812	-0.1074077193	-0.03884998437	0.03340791971	0.09253659277	0.1255359654	0.1250261127	0.1076534813	0.1134658403	2	0	1	0	0
0	0.5263644141	1	0.5	2	0.6226950133	0	0.5512087053	2	0.675	0.6611111111	0.6916666667	0.6998015873	1	0.01388888889	0.01666666667	2.494218427	0.9999930436	0.08688463543	0.3667254932	0.6316004187	0.7353729991	0.6025127914	0.2003046219	-0.2235748301	-0.3428202929	-0.3101722182	-0.2310413288	-0.1682022668	-0.1446763717	-0.167960651	-0.1255563547	-0.0606745887	0.00888838223	0.07412205578	0.1235165578	0.1293883013	0.1117474786	0.107960656	2	0	1	0	0
0	0.5277492351	1	0.5	2	0.6199533401	0	0.5498339973	2	0.6916666667	0.675	0.725	0.6998015873	1	0.01666666667	0.03333333333	2.552928611	0.9999944828	0.04033944481	0.3129971057	0.6160090859	0.7477185716	0.62513071	0.2090391872	-0.2280579392	-0.3453775378	-0.3054456441	-0.2239684567	-0.1632049622	-0.1417539766	-0.1679606539	-0.1162464957	-0.04875544634	0.02566566948	0.08534220522	0.1243122003	0.1213123951	0.101915767	0.1047035262	2	0	1	0	0
0	0.5263644141	1	0.5	2	0.6241691057	0	0.5532692946	2	0.725	0.6916666667	0.7111111111	0.6998015873	1	0.03333333333	-0.01388888889	2.500575124	0.9999985664	0.1247813557	0.4295700366	0.6673112787	0.7543660092	0.6267940349	0.2657966719	-0.1684438576	-0.3486579134	-0.3423813853	-0.2738651548	-0.2027694712	-0.161268253	-0.1805770679	-0.1350272345	-0.053611735	0.0263489454	0.09452878689	0.1191070383	0.1092096345	0.0959043995	0.09179703055	2	0	1	0	0
0	0.5270568766	1	0.5	2	0.6235519627	0	0.5518957673	2	0.7111111111	0.725	0.7	0.6998015873	1	-0.01388888889	-0.01111111111	2.238067249	0.9999928633	0.1885824074	0.4469946438	0.6390142335	0.7096397587	0.6094353226	0.3537437606	-0.02999266043	-0.291934411	-0.3284803221	-0.2779233099	-0.2096731513	-0.1587648466	-0.1752401708	-0.1445749364	-0.08394337994	-0.01052505209	0.06036493937	0.1066703682	0.1170435589	0.1074077223	0.1009109618	2	0	1	0	0
0	0.5277492351	1	0.5	2	0.6249415115	0	0.5525826312	2	0.7	0.7111111111	0.7111111111	0.6998015873	1	-0.01111111111	0.01111111111	2.315027469	0.9999904498	0.1419163975	0.3959371269	0.6178058589	0.7089808896	0.6121890148	0.3419423418	-0.04215964573	-0.2800632496	-0.3232950509	-0.2750912892	-0.2102277131	-0.1632049624	-0.1829011299	-0.1459541269	-0.07939494832	-0.002320562459	0.0752758611	0.1185350845	0.1255359622	0.11242263	0.108063047	2	0	1	0	0
0	0.5277492351	1	0.5	2	0.6257812327	0	0.5532692946	2	0.7222222222	0.6916666667	0.7194444444	0.7222222222	1	0.03055555556	-0.002777777778	2.516254133	0.9999953723	0.0581031023	0.3373411081	0.6178878328	0.7388960589	0.6377767527	0.2687484264	-0.1708766957	-0.3337793481	-0.3182779144	-0.2456200375	-0.1811960247	-0.1441285467	-0.1752593195	-0.1250380287	-0.06348851126	0.01314970747	0.07928062455	0.1081075313	0.09187410792	0.07159973616	0.07789752855	2	0	1	0	0
0	0.5263644141	1	0.5	2	0.6298936344	0	0.5573849184	2	0.7194444444	0.7222222222	0.725	0.7222222222	1	-0.002777777778	0.005555555556	2.339161892	0.9999986949	0.1236678594	0.4129554107	0.658166738	0.7586990625	0.6445706285	0.275993556	-0.1633479703	-0.3466912959	-0.3335642616	-0.2538653626	-0.1885983487	-0.1550128764	-0.188326011	-0.1482341308	-0.08084375531	-0.0002420328455	0.05416235531	0.09707134735	0.09797033685	0.07326501852	0.04865054705	2	0	1	0	0
0	0.5270568766	1	0.5	2	0.6266145514	0	0.5553280553	2	0.725	0.7194444444	0.7277777778	0.7222222222	1	0.005555555556	0.002777777778	2.376978923	0.9999957016	0.07847886921	0.3744129945	0.6334009673	0.7426096832	0.6236400396	0.2217483761	-0.207819646	-0.3373589823	-0.3052405005	-0.2258867201	-0.1634264904	-0.1262290904	-0.159183264	-0.1218601111	-0.06043453939	0.004860792393	0.06605937005	0.1029817468	0.09121409831	0.06878993469	0.06166028339	2	0	1	0	0
0	0.5263644141	1	0.5	2	0.6253343645	0	0.5573849184	2	0.7277777778	0.725	0.7527777778	0.7222222222	1	0.002777777778	0.025	2.417617804	0.9999969008	0.1020237869	0.4008719375	0.6554717542	0.7462066944	0.6141833845	0.2225920277	-0.2084371043	-0.3419979501	-0.3055331137	-0.2281822891	-0.1725209729	-0.1485497337	-0.1746140935	-0.1244026478	-0.04653755676	0.02083200067	0.08669188241	0.1160738849	0.1153376089	0.08859326041	0.06788655069	2	0	1	0	0
0	0.5270568766	1	0.5	2	0.6289191232	0	0.5580701059	2	0.7527777778	0.7277777778	0.7638888889	0.7222222222	1	0.025	0.01111111111	2.495519744	0.9999986869	0.09719121532	0.3909393984	0.6517285395	0.7572573836	0.6466408484	0.2806081453	-0.1720512839	-0.3491731867	-0.3328470612	-0.2605705898	-0.193495523	-0.1463398785	-0.1897846413	-0.1567840095	-0.07994199912	0.00488096228	0.07795767066	0.1174863856	0.1177250719	0.09787045608	0.07713569936	2	0	1	0	0
0	0.5270568766	1	0.5	2	0.628329923	0	0.5580701059	2	0.7638888889	0.7527777778	0.7527777778	0.7222222222	1	0.01111111111	-0.01111111111	2.348763559	0.9999979085	0.05213099488	0.3497928837	0.631658598	0.7542821986	0.6516357188	0.2703943512	-0.188909564	-0.349031492	-0.3290394594	-0.2644016511	-0.2001649654	-0.1579248695	-0.1851725199	-0.1427852574	-0.07791758103	-0.002238800605	0.0698337105	0.1140637529	0.1168498292	0.08130460682	0.05233214221	2	0	1	0	0
0	0.5256718502	1	0.5	2	0.6336280677	0	0.5594398153	2	0.7527777778	0.7638888889	0.7	0.7222222222	1	-0.01111111111	-0.05277777778	2.139088201	0.9999938541	0.142706222	0.4297422289	0.6411624961	0.7276711211	0.6049052003	0.236577549	-0.1957465465	-0.3414991618	-0.3148660764	-0.2400779217	-0.175572092	-0.1350314421	-0.1642508631	-0.1197931105	-0.04281366894	0.03465735342	0.08555075564	0.1040193194	0.0951329821	0.06350859898	0.06613968907	2	0	1	0	0
0	0.5277492351	1	0.5	2	0.6246855686	0	0.5512087053	2	0.7	0.7527777778	0.6777777778	0.7222222222	1	-0.05277777778	-0.02222222222	2.017927708	0.9999883813	0.09403358767	0.3618593989	0.6001260178	0.7100542579	0.6244774273	0.3488189277	-0.04764441408	-0.2798647215	-0.3023111842	-0.2422055388	-0.175024704	-0.1300380353	-0.1591046275	-0.1172476915	-0.0661396947	-0.003549806838	0.06766570222	0.1160539877	0.1191568991	0.0951929428	0.0789198464	2	0	1	0	0
0	0.5263644141	1	0.5	2	0.6229364485	0	0.5525826312	2	0.6777777778	0.7	0.7166666667	0.7222222222	1	-0.02222222222	0.03888888889	2.335050522	0.9999959564	0.1115547449	0.3980580805	0.6480469208	0.7425734856	0.6085755587	0.2152950818	-0.2033381093	-0.3416416916	-0.3122472356	-0.2299405218	-0.163740569	-0.141520497	-0.1809619364	-0.1335460155	-0.05058204709	0.03463720697	0.09497308367	0.129066325	0.1245813573	0.1094428907	0.09025393414	2	0	1	0	0
0	0.5263644141	1	0.5	2	0.6252457981	0	0.5532692946	2	0.7166666667	0.6777777778	0.7166666667	0.7222222222	1	0.03888888889	0	2.583001036	0.9999979725	0.1105587114	0.4079575598	0.667316453	0.7574981856	0.610401045	0.1910869874	-0.2267287212	-0.3456971797	-0.3133389995	-0.2395456593	-0.1773698951	-0.1464188242	-0.1895124328	-0.1287093081	-0.0492541823	0.03042626201	0.09569258504	0.1306724943	0.1068914123	0.08120441929	0.08697212458	2	0	1	0	0
0	0.530517575	2	0.5	2	0.6065840019	1	0.5539557547	2	0.9	0.8722222222	0.8416666667	0.8580808081	1	0.02777777778	-0.05833333333	2.203301842	0.9996426425	0.3435525241	0.2696605309	0.4391668941	0.6821334788	0.5275134096	0.1071618308	-0.2151890032	-0.1924156337	-0.09533173726	-0.06815454502	-0.05222777829	-0.0441820469	0.002880176104	0.03386521492	0.113705444	0.2059683219	0.2990425064	0.3525700286	0.2384099502	0.08147224285	0.02706712155	2	0	1	0	0
0	0.530517575	2	0.5	2	0.6048591016	1	0.5491463565	2	0.8416666667	0.9	0.8583333333	0.8580808081	1	-0.05833333333	0.01666666667	1.997239495	0.9992713367	0.3202639903	0.1980948855	0.4165813678	0.6633760793	0.493232111	0.04446949585	-0.2614956281	-0.233344086	-0.1373394362	-0.1061652334	-0.09233417483	-0.08064963019	-0.01699144626	0.03918643734	0.134936647	0.2399713089	0.3190033541	0.3584515306	0.2438353883	0.1065923708	0.03641822013	2	0	1	0	0
0	0.5312093734	2	0.5	2	0.6040240048	1	0.5429494495	2	0.8583333333	0.8416666667	0.8361111111	0.8580808081	1	0.01666666667	-0.02222222222	2.266455388	0.9999984023	0.4998507323	0.4294689801	0.601590795	0.7535567253	0.6225258592	0.2420737757	-0.1198134056	-0.1327091323	-0.1138120487	-0.1300555718	-0.1315064144	-0.1276126439	-0.01954675997	0.008820335343	0.03102403306	0.1191036336	0.2358276237	0.2505957637	0.1304448782	0.02059041379	-0.01281611633	2	0	1	0	0
0	0.5298256594	1	0.5	2	0.6006275034	1	0.5436386872	2	0.8361111111	0.8583333333	0.8444444444	0.8580808081	1	-0.02222222222	0.008333333333	2.155379669	0.999993377	0.3995380259	0.4157478964	0.5946076589	0.761594156	0.590026924	0.1023192396	-0.1903346159	-0.126762567	-0.09533174066	-0.09604519394	-0.09076335499	-0.09004919477	-0.03497995544	0.02936943901	0.1033166599	0.1911672304	0.300451508	0.3194883445	0.2038989006	0.101179097	0.05308944371	2	0	1	0	0
0	0.5298256594	1	0.5	2	0.5995731096	1	0.5470823178	2	0.8444444444	0.8361111111	0.825	0.8580808081	1	0.008333333333	-0.01944444444	2.244467288	0.9999259903	0.3098870911	0.3462486828	0.5141864797	0.7343370362	0.5455609245	0.008208335992	-0.2405819342	-0.1472511601	-0.1115727203	-0.1026042437	-0.08418964733	-0.07717916592	-0.02904569307	0.02710309505	0.1187132004	0.2234823511	0.3145660135	0.3396409724	0.1970223718	0.07896829854	0.05097105429	2	0	1	0	0
1	0.5298256594	1	0.5332840383	1	0.5917564124	1	0.5429494495	2	0.825	0.8444444444	0.8888888889	0.8580808081	1	-0.01944444444	0.06388888889	2.291989308	0.9999237577	0.3795052929	0.3444730404	0.5286557491	0.7303305939	0.5111077785	0.007488343719	-0.2080358937	-0.1278959469	-0.1004663578	-0.1008940049	-0.07703599514	-0.06213183698	-0.009936299711	0.01357203697	0.07836004207	0.1748829776	0.2733954904	0.3061070027	0.1565363907	0.03436865616	-0.009612318608	2	0	1	0	0
0	0.5298256594	1	0.5	2	0.6014393378	1	0.5477705142	2	0.8888888889	0.825	0.8805555556	0.8580808081	1	0.06388888889	-0.008333333333	2.514963078	0.9999455479	0.3963564295	0.340277804	0.5660838657	0.7148503197	0.5225063196	0.09197720841	-0.1937327234	-0.1574142728	-0.1053108398	-0.1060940428	-0.09861280349	-0.09090617075	-0.01461589681	0.02886582536	0.1102925747	0.1922769473	0.2871954572	0.3294096427	0.1957416624	0.07245345766	0.02490843756	2	0	1	0	0
0	0.5312093734	2	0.5	2	0.6069266543	1	0.548458528	2	0.8805555556	0.8888888889	0.8361111111	0.8580808081	1	-0.008333333333	-0.04444444444	2.077118242	0.9999672708	0.3555929309	0.3172883689	0.5288632391	0.7309347959	0.5840811347	0.16579406	-0.2184827161	-0.2160128943	-0.1303033066	-0.1113593762	-0.09857714397	-0.08522621419	-0.01339205705	0.0367058477	0.1104348309	0.206830032	0.2973368515	0.3401823066	0.2109273757	0.08983491764	0.03900668775	2	0	1	0	0
0	0.5312093734	2	0.5	2	0.6057415753	1	0.5477705142	2	0.8361111111	0.8805555556	0.8555555556	0.8580808081	1	-0.04444444444	0.01944444444	2.070701182	0.9997718008	0.3411688485	0.3058459576	0.4570054226	0.6937383189	0.5061973094	0.01511981845	-0.2804426451	-0.2256019446	-0.1382224016	-0.1237503808	-0.1175417051	-0.1094389559	-0.03141966329	0.05445357271	0.1598359163	0.2511355391	0.3443778476	0.3475155052	0.1985445171	0.06772451919	0.01828713397	2	0	1	0	0
0	0.530517575	2	0.5	2	0.6012705366	1	0.5463939414	2	0.8722222222	0.8638888889	0.8583333333	0.8675	1	0.008333333333	-0.01388888889	2.223510976	0.9924295585	0.3106415292	0.1904886259	0.3022620866	0.5837499052	0.3783392721	-0.07852207668	-0.2630717514	-0.1853698079	-0.1003284013	-0.07807004183	-0.06374003491	-0.04635850178	0.007618105636	0.01330273295	0.0291760718	0.1248753877	0.2149106407	0.2836564758	0.2397813867	0.1009286848	0.01076368533	2	0	1	0	0
1	0.530517575	2	0.533975341	1	0.5974119111	1	0.5477705142	2	0.8583333333	0.8722222222	0.85	0.8675	1	-0.01388888889	-0.008333333333	2.140525242	0.999478575	0.3346803493	0.308585427	0.43388725	0.6819645445	0.485047257	-0.0174330441	-0.2392097434	-0.1537142745	-0.1016789379	-0.08740526209	-0.08017925185	-0.06162587392	-0.02353264844	0.04064618422	0.1297972898	0.23133296	0.3225092432	0.3652747477	0.2102784944	0.06872110658	0.02546447735	2	0	1	0	0
0	0.5291336291	1	0.5	2	0.5960199706	1	0.548458528	2	0.85	0.8583333333	0.8888888889	0.8675	1	-0.008333333333	0.03888888889	2.268278712	0.9997417181	0.3651433628	0.3122843318	0.4922026043	0.6999447681	0.4685312205	-0.04030562746	-0.2309024318	-0.1356058206	-0.07279399673	-0.0581514246	-0.04938369409	-0.04091105566	0.00109914923	0.03224321294	0.1190506791	0.2162116967	0.315700819	0.3680304892	0.2314764422	0.08409442876	0.02985770631	2	0	1	0	0
0	0.5298256594	1	0.5	2	0.6020153017	1	0.5546420091	2	0.8888888889	0.85	0.9083333333	0.8675	1	0.03888888889	0.01944444444	2.428573522	0.9986473194	0.3336029116	0.1907808288	0.4233684313	0.6508423177	0.4389499097	-0.0299713128	-0.2479090905	-0.1711314518	-0.08454601948	-0.05694258123	-0.04257582398	-0.02576749115	0.007504407633	0.04832497401	0.1287537741	0.2364921682	0.3263074829	0.3966340787	0.2845275459	0.1142652893	0.03606682381	2	0	1	0	0
0	0.530517575	2	0.5	2	0.6043062632	1	0.5539557547	2	0.9083333333	0.8888888889	0.8555555556	0.8675	1	0.01944444444	-0.05277777778	2.161496885	0.9998919079	0.3555131265	0.2789446374	0.477826377	0.7144918808	0.5594619944	0.1045288474	-0.2240018038	-0.1955971175	-0.1160604443	-0.09567372605	-0.07912472956	-0.07143662873	-0.02516145515	0.03894330416	0.1130681033	0.2146214135	0.3036390151	0.3805455183	0.2832033304	0.1254723123	0.05312610271	2	0	1	0	0
0	0.5298256594	1	0.5	2	0.602857655	1	0.5491463565	2	0.8555555556	0.9083333333	0.8805555556	0.8675	1	-0.05277777778	0.025	2.021510785	0.9910861996	0.3443377013	0.1600728653	0.3070757651	0.5705053142	0.2878680636	-0.1705427358	-0.2837958885	-0.1836124444	-0.1328143949	-0.1206943927	-0.1112717036	-0.1030665947	-0.02803993881	0.03667245586	0.1275608443	0.2222731109	0.3139252701	0.3498048309	0.2124510122	0.07030529926	-0.006443221519	2	0	1	0	0
0	0.5298256594	1	0.5	2	0.6015112694	1	0.5505214477	2	0.8805555556	0.8555555556	0.8666666667	0.8675	1	0.025	-0.01388888889	2.29876172	0.9955860676	0.3214561014	0.3603048722	0.3577626409	0.6061738066	0.3826180417	-0.07098410769	-0.1370936925	-0.04681232367	-0.03152380728	-0.02516144724	-0.02531295667	-0.02485842629	0.006026305907	0.03379548815	0.08936074757	0.1650543822	0.2578428437	0.3438030773	0.2797832866	0.1105229973	0.02819143624	2	0	1	0	0
0	0.530517575	2	0.5	2	0.6021726965	1	0.5491463565	2	0.8666666667	0.8805555556	0.8305555556	0.8675	1	-0.01388888889	-0.03611111111	2.080931311	0.9999938275	0.4219986979	0.3795078229	0.5816471602	0.761594156	0.5975688899	0.1406620944	-0.1973461803	-0.1532701627	-0.08875913281	-0.06962639513	-0.0646459206	-0.05316389786	-0.01311325841	0.02724461858	0.09131555451	0.1874185508	0.2912016112	0.3688166563	0.2615188069	0.1009286776	0.03409835284	2	0	1	0	0
1	0.5676383757	2	0.5159667915	0	0.6694011516	0	0.5812185779	2	1.108333333	0.8	0.8416666667	0.9317901235	1	0.3083333333	-0.2666666667	3.118546187	0.9997744587	-0.01346038869	-0.01392448396	-0.001508586325	0.01055968657	-0.01926105969	-0.1125487873	-0.2856519834	-0.5931912819	-0.6790772368	-0.508173586	-0.3066127414	-0.1105146081	0.006295349154	0.03120592087	0.1222765316	0.1878247516	0.2353679005	0.244554289	0.1871529583	0.1215906144	0.05564397783	2	0	1	0	0
1	0.5353575526	2	0.5395008458	1	0.5989618514	1	0.5662743942	2	0.8416666667	1.108333333	0.9805555556	0.9317901235	1	-0.2666666667	0.1388888889	1.36914974	0.5054938708	-0.4557342274	-0.2417154852	-0.04380786998	0.005250980707	0.003075177225	0.002494958359	0.002378914856	0.001537590519	0.00423561138	0.004699781816	0.001827703332	0.007890884654	0.07228567047	0.130270101	0.1969880784	0.2275702097	0.2258089038	0.1876008416	0.1442743983	0.08393455262	0.039550643	2	0	1	0	0
0	0.5683199835	2	0.5	2	0.665416756	0	0.5818945459	2	0.9805555556	0.8416666667	0.9638888889	0.9317901235	1	0.1388888889	-0.01666666667	2.78543562	0.9998229377	-0.01044365396	-0.01404049906	0.001624625218	0.01833303009	-0.01462060137	-0.1026845919	-0.2853322166	-0.5610066823	-0.6807619875	-0.5470131964	-0.3473332779	-0.1624326765	0.006962576248	0.0415201633	0.1334628534	0.1895034663	0.2253683473	0.2102247025	0.1498376124	0.08877208099	0.02877117368	2	0	1	0	0
0	0.5676383757	2	0.5	2	0.6591479778	0	0.5744425168	2	0.9638888889	0.9805555556	0.9222222222	0.9317901235	1	-0.01666666667	-0.04166666667	1.932048459	0.9995575243	0.004873848265	0.0084710758	0.01705694123	0.03120592882	-0.004409670093	-0.09785972282	-0.2795657389	-0.5629122294	-0.6593471355	-0.5069675074	-0.2987067022	-0.09717007456	0.001856715708	0.06096388192	0.1209045836	0.19229886	0.2199640901	0.2366828605	0.2012229646	0.1307263754	0.07182390083	2	0	1	0	0
1	0.5669565118	2	0.5166604966	0	0.6585160559	0	0.5730838567	2	0.9222222222	0.9638888889	0.9138888889	0.9317901235	1	-0.04166666667	-0.008333333333	1.933065994	0.999770717	-0.01717294331	-0.01009555032	0.0009283657222	0.009863494389	-0.01334436136	-0.100617372	-0.3201122338	-0.6188821854	-0.6722026404	-0.484653304	-0.2746375752	-0.08206181106	0.004496706958	0.06073265071	0.1227337448	0.1983262114	0.2245971474	0.2242665467	0.1742437606	0.1132361804	0.06893715186	2	0	1	0	0
0	0.5669565118	2	0.5	2	0.6620849016	0	0.5785116792	2	0.9138888889	0.9222222222	0.8944444444	0.9317901235	1	-0.008333333333	-0.01944444444	2.078063522	0.9992294015	-0.007310693122	-0.009863489202	-0.001160448319	0.01137190182	-0.03306072271	-0.1438198511	-0.3482513565	-0.6113803507	-0.6099977745	-0.4286658201	-0.2373400127	-0.04467650609	0.00435165326	0.06512488537	0.1500644829	0.2060060009	0.2305390261	0.2046721797	0.1383605947	0.07840111302	0.02030505336	2	0	1	0	0
1	0.5662743942	2	0.5173541374	0	0.6490467625	0	0.5737633259	2	0.8944444444	0.9138888889	0.9611111111	0.9317901235	1	-0.01944444444	0.06666666667	2.19783995	0.9986008509	-0.004873846882	0.001160444169	0.003597368451	0.01079174469	-0.02691590243	-0.1363111906	-0.3550648305	-0.5999926603	-0.5904013733	-0.3960217353	-0.1956492222	-0.0351760784	0.00432264252	0.04001408723	0.111746687	0.1818845643	0.2124419432	0.2143248796	0.1782915689	0.1147251637	0.06570262545	2	0	1	0	0
0	0.5669565118	2	0.5	2	0.6531045612	0	0.5744425168	2	0.8	0.7555555556	0.85	0.7871212121	1	0.04444444444	0.05	2.666616206	0.999978275	-0.02375601444	-0.01826608123	-0.008596548708	0.002865578568	-0.0266197807	-0.1254218545	-0.3685418598	-0.6758032438	-0.7197840841	-0.5367818797	-0.3151014826	-0.1123560528	0.003044675971	0.04557897679	0.1217770242	0.1982873936	0.247855617	0.251326415	0.2068747859	0.1178934329	0.04128871244	2	0	1	0	0
1	0.5676383757	2	0.5118033622	0	0.6626896272	0	0.5703632449	2	0.85	0.8	0.725	0.7871212121	1	0.05	-0.125	2.236085264	0.9999749826	-0.01826608052	-0.01325256164	0.001671587863	0.0181467183	-0.02148858974	-0.1241289112	-0.3425725929	-0.6384539849	-0.7246393431	-0.5729616452	-0.3311409088	-0.1292981162	0.002119336964	0.04605557352	0.1208358849	0.1908202365	0.2531152724	0.2710176855	0.242693681	0.1641094628	0.09238972311	2	0	1	0	0
0	0.5512087053	2	0.5	2	0.6200349255	0	0.5635434368	2	0.725	0.85	0.8444444444	0.7871212121	1	-0.125	0.1194444444	1.985553697	0.9999977384	-0.1289458975	-0.3289066245	-0.6071889326	-0.7611299345	-0.6724159096	-0.4557434389	-0.238531673	-0.04334466352	0.004119257735	0.0003880474195	0.004387900487	0.004656543567	0.03210740462	0.10267856	0.1624824442	0.2195254832	0.2479676767	0.2415696874	0.1981726868	0.1261269209	0.06676421002	2	0	1	0	0
1	0.5690013326	2	0.5111092825	0	0.6658937958	0	0.5758000536	2	0.8444444444	0.725	0.7638888889	0.7871212121	1	0.1194444444	-0.08055555556	2.76434472	0.9999867562	-0.02220464346	-0.01945964862	-0.001910388736	0.009671049523	-0.01635626379	-0.09250809973	-0.2989887452	-0.5981413327	-0.7344678758	-0.6281569379	-0.4106600333	-0.2051598116	0.004029708801	0.04879558096	0.1222475136	0.2028712121	0.2477435481	0.2575798353	0.1989755235	0.1226003411	0.0428381602	2	0	1	0	0
0	0.5512087053	2	0.5	2	0.6231125522	0	0.5587550723	2	0.7638888889	0.8444444444	0.7333333333	0.7871212121	1	-0.08055555556	-0.03055555556	1.868518322	0.9999747343	-0.09818715387	-0.297465821	-0.5865941274	-0.7340827064	-0.603558125	-0.3776889079	-0.1787981488	-0.01680388581	0.003313321725	0.002984976754	0.004596845302	0.007342932346	0.04605557156	0.1190706647	0.1882878329	0.2318768509	0.2615885677	0.254679111	0.2159996323	0.1478005152	0.08611197979	2	0	1	0	0
1	0.5512087053	2	0.5194346481	0	0.6198892667	0	0.5587550723	2	0.7333333333	0.7638888889	0.775	0.7871212121	1	-0.03055555556	0.04166666667	2.268619057	0.9999853221	-0.1023241236	-0.3041985996	-0.6086943339	-0.7341928029	-0.6177089014	-0.3933429817	-0.1992908561	-0.01787815813	0.00310437491	0.003014826351	0.01444632496	0.02900592122	0.06937882376	0.1424238132	0.2005804032	0.2588056748	0.2752164147	0.2618110141	0.2087026899	0.1385614117	0.07175492134	2	0	1	0	0
1	0.5512087053	2	0.5187412159	0	0.6272123062	0	0.5628600882	2	0.775	0.7333333333	0.7388888889	0.7871212121	1	0.04166666667	-0.03611111111	2.455150061	0.9999949432	-0.1132990891	-0.2889534228	-0.5817175169	-0.7592146222	-0.6626192747	-0.4315801996	-0.217251398	-0.03812962292	0.004387900359	0.003343172211	0.001850689048	0.003402869829	0.05260653649	0.1197768449	0.1981726895	0.2531152778	0.2684713166	0.2502075058	0.1879423141	0.1160091723	0.05058215021	2	0	1	0	0
1	0.5512087053	2	0.5235935763	0	0.6204340639	0	0.5662743942	2	0.7388888889	0.775	0.8805555556	0.7871212121	1	-0.03611111111	0.1416666667	2.477612068	0.9999894577	-0.1103514313	-0.311655931	-0.5877676184	-0.7363319747	-0.6352602389	-0.4271978877	-0.2358272941	-0.04581727792	0.00913380104	0.003970009552	0.002507384524	0.001253692186	0.01731118631	0.08160671825	0.1612034553	0.218729822	0.2521092508	0.2365037262	0.1833309301	0.09440180455	0.03890456491	2	0	1	0	0
0	0.5683199835	2	0.5	2	0.6687283873	0	0.5778342099	2	0.8805555556	0.7388888889	0.7916666667	0.7871212121	1	0.1416666667	-0.08888888889	2.841408092	0.9999863847	-0.03163029132	-0.03163029061	-0.01384944801	0.004656542905	-0.02638115174	-0.1310587651	-0.3491948025	-0.6226318117	-0.7250360156	-0.6093703346	-0.3878791952	-0.189324124	0.005074431751	0.07591111361	0.1599239203	0.2271262214	0.2622558163	0.2342480403	0.1534016814	0.07163613544	0.01420757525	2	0	1	0	0
